# OpenSignals Text File Format. Version 1
# {"00:07:80:0F:31:47": {"position": 0, "device": "biosignalsplux", "device name": "00:07:80:0F:31:47", "device connection": "BTH00:07:80:0F:31:47", "sampling rate": 1000, "resolution": [16], "firmware version": 775, "comments": "", "keywords": "", "mode": 0, "sync interval": 2, "date": "2023-2-21", "time": "10:37:54.787", "channels": [1], "sensor": ["ECG"], "label": ["CH1"], "column": ["nSeq", "DI", "CH1"], "special": [{"SpO2": [80, 40, 5, 4, 3, 3]}, {"SpO2": [80, 40, 5, 4, 3, 3]}, {"SpO2": [80, 40, 5, 4, 3, 3]}, {"SpO2": [80, 40, 5, 4, 3, 3]}, {"SpO2": [80, 40, 5, 4, 3, 3]}, {"SpO2": [80, 40, 5, 4, 3, 3]}, {"SpO2": [80, 40, 5, 4, 3, 3]}, {"SpO2": [80, 40, 5, 4, 3, 3]}], "digital IO": [0, 1], "sleeve color": [""]}}
# EndOfHeader
0	0	30172	
1	0	29988	
2	0	30280	
3	0	31064	
4	0	32280	
5	0	33804	
6	0	35408	
7	0	36860	
8	0	37276	
9	0	36372	
10	0	34676	
11	0	32864	
12	0	31288	
13	0	30072	
14	0	29464	
15	0	29456	
16	0	30008	
17	0	30932	
18	0	31256	
19	0	30852	
20	0	30332	
21	0	30112	
22	0	30372	
23	0	31164	
24	0	32432	
25	0	33912	
26	0	35546	
27	0	37052	
28	0	37452	
29	0	36520	
30	0	34672	
31	0	32648	
32	0	30952	
33	0	29780	
34	0	29260	
35	0	29288	
36	0	29880	
37	0	30920	
38	0	31356	
39	0	31024	
40	0	30560	
41	0	30340	
42	0	30568	
43	0	31360	
44	0	32544	
45	0	34056	
46	0	35748	
47	0	37216	
48	0	37516	
49	0	36552	
50	0	34804	
51	0	32964	
52	0	31400	
53	0	30208	
54	0	29644	
55	0	29640	
56	0	30136	
57	0	31084	
58	0	31384	
59	0	30992	
60	0	30432	
61	0	30256	
62	0	30556	
63	0	31340	
64	0	32560	
65	0	34048	
66	0	35616	
67	0	37036	
68	0	37432	
69	0	36480	
70	0	34800	
71	0	32960	
72	0	31328	
73	0	30132	
74	0	29540	
75	0	29528	
76	0	30104	
77	0	31032	
78	0	31322	
79	0	30960	
80	0	30500	
81	0	30356	
82	0	30696	
83	0	31508	
84	0	32680	
85	0	34168	
86	0	35800	
87	0	37256	
88	0	37488	
89	0	36424	
90	0	34656	
91	0	32820	
92	0	31264	
93	0	30124	
94	0	29528	
95	0	29460	
96	0	30036	
97	0	31068	
98	0	31476	
99	0	31240	
100	0	30844	
101	0	30572	
102	0	30808	
103	0	31648	
104	0	32956	
105	0	34468	
106	0	36060	
107	0	37492	
108	0	37708	
109	0	36652	
110	0	34852	
111	0	32972	
112	0	31432	
113	0	30336	
114	0	29852	
115	0	29945	
116	0	30496	
117	0	31416	
118	0	31656	
119	0	31232	
120	0	30792	
121	0	30592	
122	0	30792	
123	0	31624	
124	0	32932	
125	0	34428	
126	0	36012	
127	0	37388	
128	0	37552	
129	0	36424	
130	0	34700	
131	0	32960	
132	0	31476	
133	0	30284	
134	0	29624	
135	0	29644	
136	0	30248	
137	0	31184	
138	0	31472	
139	0	31140	
140	0	30740	
141	0	30540	
142	0	30764	
143	0	31604	
144	0	32946	
145	0	34516	
146	0	36156	
147	0	37608	
148	0	37884	
149	0	36848	
150	0	35152	
151	0	33344	
152	0	31788	
153	0	30608	
154	0	29968	
155	0	29888	
156	0	30376	
157	0	31236	
158	0	31496	
159	0	31068	
160	0	30584	
161	0	30426	
162	0	30812	
163	0	31684	
164	0	33024	
165	0	34648	
166	0	36328	
167	0	37724	
168	0	37880	
169	0	36796	
170	0	35104	
171	0	33304	
172	0	31720	
173	0	30512	
174	0	29940	
175	0	29880	
176	0	30472	
177	0	31480	
178	0	31792	
179	0	31352	
180	0	30876	
181	0	30724	
182	0	31050	
183	0	31876	
184	0	33120	
185	0	34608	
186	0	36168	
187	0	37504	
188	0	37664	
189	0	36672	
190	0	35024	
191	0	33212	
192	0	31580	
193	0	30432	
194	0	29864	
195	0	29824	
196	0	30388	
197	0	31308	
198	0	31592	
199	0	31248	
200	0	30848	
201	0	30700	
202	0	30960	
203	0	31780	
204	0	33134	
205	0	34728	
206	0	36392	
207	0	37744	
208	0	37884	
209	0	36792	
210	0	35010	
211	0	33248	
212	0	31712	
213	0	30624	
214	0	30100	
215	0	30164	
216	0	30712	
217	0	31552	
218	0	31840	
219	0	31450	
220	0	30908	
221	0	30688	
222	0	30988	
223	0	31776	
224	0	32984	
225	0	34548	
226	0	36212	
227	0	37560	
228	0	37756	
229	0	36676	
230	0	34924	
231	0	33072	
232	0	31516	
233	0	30402	
234	0	29924	
235	0	29984	
236	0	30572	
237	0	31576	
238	0	31968	
239	0	31580	
240	0	31052	
241	0	30828	
242	0	31080	
243	0	31946	
244	0	33306	
245	0	34912	
246	0	36580	
247	0	37964	
248	0	38208	
249	0	37208	
250	0	35484	
251	0	33652	
252	0	32072	
253	0	30912	
254	0	30332	
255	0	30360	
256	0	30896	
257	0	31856	
258	0	32144	
259	0	31760	
260	0	31324	
261	0	31132	
262	0	31368	
263	0	32164	
264	0	33488	
265	0	35056	
266	0	36760	
267	0	38208	
268	0	38448	
269	0	37404	
270	0	35732	
271	0	34024	
272	0	32524	
273	0	31364	
274	0	30760	
275	0	30696	
276	0	31216	
277	0	32176	
278	0	32592	
279	0	32308	
280	0	31956	
281	0	31892	
282	0	32132	
283	0	32880	
284	0	34132	
285	0	35620	
286	0	37304	
287	0	38788	
288	0	39184	
289	0	38224	
290	0	36448	
291	0	34540	
292	0	32844	
293	0	31624	
294	0	31136	
295	0	31116	
296	0	31572	
297	0	32452	
298	0	32754	
299	0	32396	
300	0	31888	
301	0	31796	
302	0	32226	
303	0	33008	
304	0	34144	
305	0	35500	
306	0	36968	
307	0	38320	
308	0	38568	
309	0	37540	
310	0	35860	
311	0	34144	
312	0	32576	
313	0	31328	
314	0	30636	
315	0	30512	
316	0	31048	
317	0	32032	
318	0	32396	
319	0	32000	
320	0	31312	
321	0	30804	
322	0	30872	
323	0	31488	
324	0	32652	
325	0	34128	
326	0	35772	
327	0	37232	
328	0	37504	
329	0	36436	
330	0	34632	
331	0	32728	
332	0	31180	
333	0	30048	
334	0	29432	
335	0	29344	
336	0	29884	
337	0	30856	
338	0	31264	
339	0	30992	
340	0	30612	
341	0	30376	
342	0	30576	
343	0	31280	
344	0	32436	
345	0	33912	
346	0	35678	
347	0	37236	
348	0	37572	
349	0	36636	
350	0	34884	
351	0	32936	
352	0	31310	
353	0	30140	
354	0	29556	
355	0	29448	
356	0	29960	
357	0	30944	
358	0	31336	
359	0	30964	
360	0	30408	
361	0	30128	
362	0	30284	
363	0	30988	
364	0	32240	
365	0	33818	
366	0	35496	
367	0	37064	
368	0	37452	
369	0	36512	
370	0	34904	
371	0	33056	
372	0	31400	
373	0	30156	
374	0	29608	
375	0	29664	
376	0	30152	
377	0	31056	
378	0	31452	
379	0	31104	
380	0	30628	
381	0	30372	
382	0	30496	
383	0	31198	
384	0	32536	
385	0	34144	
386	0	35872	
387	0	37400	
388	0	37896	
389	0	37196	
390	0	35596	
391	0	33672	
392	0	31976	
393	0	30828	
394	0	30356	
395	0	30484	
396	0	31152	
397	0	32208	
398	0	32824	
399	0	32760	
400	0	32528	
401	0	32464	
402	0	32868	
403	0	33888	
404	0	35408	
405	0	37200	
406	0	38996	
407	0	40520	
408	0	41064	
409	0	40348	
410	0	38944	
411	0	37376	
412	0	35976	
413	0	34868	
414	0	34456	
415	0	34580	
416	0	35460	
417	0	37136	
418	0	38460	
419	0	38952	
420	0	39048	
421	0	38988	
422	0	39128	
423	0	39572	
424	0	40344	
425	0	41196	
426	0	41952	
427	0	42552	
428	0	42184	
429	0	40600	
430	0	38528	
431	0	36568	
432	0	34860	
433	0	33496	
434	0	32724	
435	0	32524	
436	0	32820	
437	0	33576	
438	0	33868	
439	0	33424	
440	0	32872	
441	0	32672	
442	0	32828	
443	0	33284	
444	0	34154	
445	0	35432	
446	0	36880	
447	0	38148	
448	0	38288	
449	0	37140	
450	0	35248	
451	0	33180	
452	0	31400	
453	0	29976	
454	0	29184	
455	0	29046	
456	0	29576	
457	0	30528	
458	0	30972	
459	0	30556	
460	0	29872	
461	0	29392	
462	0	29584	
463	0	30460	
464	0	31812	
465	0	33408	
466	0	35036	
467	0	36532	
468	0	37032	
469	0	36248	
470	0	34672	
471	0	32676	
472	0	30876	
473	0	29600	
474	0	28924	
475	0	28712	
476	0	29025	
477	0	29948	
478	0	30564	
479	0	30344	
480	0	29796	
481	0	29548	
482	0	29800	
483	0	30512	
484	0	31672	
485	0	33176	
486	0	34872	
487	0	36296	
488	0	36852	
489	0	36072	
490	0	34468	
491	0	32648	
492	0	30980	
493	0	29624	
494	0	28820	
495	0	28760	
496	0	29340	
497	0	30268	
498	0	30712	
499	0	30420	
500	0	29880	
501	0	29616	
502	0	29820	
503	0	30552	
504	0	31820	
505	0	33352	
506	0	35000	
507	0	36560	
508	0	37100	
509	0	36288	
510	0	34688	
511	0	32796	
512	0	31112	
513	0	29780	
514	0	29160	
515	0	29068	
516	0	29572	
517	0	30572	
518	0	31092	
519	0	30782	
520	0	30242	
521	0	29952	
522	0	30044	
523	0	30634	
524	0	31832	
525	0	33372	
526	0	35040	
527	0	36666	
528	0	37320	
529	0	36568	
530	0	34988	
531	0	33172	
532	0	31488	
533	0	30120	
534	0	29364	
535	0	29204	
536	0	29600	
537	0	30564	
538	0	31088	
539	0	30916	
540	0	30580	
541	0	30344	
542	0	30492	
543	0	31120	
544	0	32224	
545	0	33684	
546	0	35300	
547	0	36928	
548	0	37544	
549	0	36772	
550	0	35176	
551	0	33372	
552	0	31668	
553	0	30344	
554	0	29688	
555	0	29596	
556	0	30008	
557	0	30888	
558	0	31468	
559	0	31288	
560	0	30832	
561	0	30656	
562	0	30776	
563	0	31408	
564	0	32640	
565	0	34196	
566	0	35824	
567	0	37328	
568	0	37884	
569	0	37188	
570	0	35640	
571	0	33808	
572	0	32160	
573	0	30808	
574	0	30028	
575	0	29828	
576	0	30232	
577	0	31144	
578	0	31644	
579	0	31436	
580	0	31104	
581	0	30938	
582	0	31080	
583	0	31696	
584	0	32852	
585	0	34376	
586	0	35992	
587	0	37552	
588	0	38224	
589	0	37432	
590	0	35784	
591	0	33996	
592	0	32364	
593	0	31026	
594	0	30324	
595	0	30172	
596	0	30566	
597	0	31584	
598	0	32296	
599	0	32140	
600	0	31712	
601	0	31456	
602	0	31540	
603	0	32204	
604	0	33396	
605	0	34916	
606	0	36532	
607	0	38064	
608	0	38736	
609	0	37988	
610	0	36304	
611	0	34364	
612	0	32680	
613	0	31484	
614	0	30856	
615	0	30632	
616	0	31004	
617	0	32012	
618	0	32596	
619	0	32344	
620	0	31864	
621	0	31728	
622	0	31988	
623	0	32780	
624	0	34000	
625	0	35452	
626	0	37024	
627	0	38456	
628	0	38984	
629	0	38304	
630	0	36800	
631	0	35100	
632	0	33460	
633	0	32080	
634	0	31316	
635	0	31256	
636	0	31800	
637	0	32738	
638	0	33296	
639	0	33144	
640	0	32634	
641	0	32360	
642	0	32572	
643	0	33320	
644	0	34460	
645	0	35892	
646	0	37568	
647	0	39152	
648	0	39712	
649	0	38908	
650	0	37290	
651	0	35440	
652	0	33720	
653	0	32412	
654	0	31696	
655	0	31552	
656	0	32016	
657	0	33004	
658	0	33592	
659	0	33368	
660	0	32866	
661	0	32604	
662	0	32716	
663	0	33388	
664	0	34640	
665	0	36164	
666	0	37736	
667	0	39212	
668	0	39800	
669	0	39076	
670	0	37440	
671	0	35648	
672	0	34112	
673	0	32828	
674	0	32016	
675	0	31652	
676	0	31916	
677	0	32784	
678	0	33176	
679	0	32876	
680	0	32384	
681	0	32072	
682	0	32128	
683	0	32780	
684	0	33992	
685	0	35432	
686	0	36984	
687	0	38490	
688	0	39012	
689	0	38176	
690	0	36600	
691	0	34824	
692	0	33114	
693	0	31660	
694	0	30880	
695	0	30740	
696	0	31108	
697	0	31896	
698	0	32364	
699	0	32080	
700	0	31536	
701	0	31140	
702	0	31256	
703	0	31864	
704	0	33024	
705	0	34456	
706	0	35948	
707	0	37376	
708	0	37736	
709	0	36764	
710	0	35012	
711	0	33228	
712	0	31536	
713	0	30192	
714	0	29492	
715	0	29312	
716	0	29696	
717	0	30716	
718	0	31212	
719	0	30892	
720	0	30300	
721	0	30036	
722	0	30240	
723	0	30952	
724	0	32193	
725	0	33528	
726	0	34960	
727	0	36356	
728	0	36736	
729	0	35804	
730	0	34096	
731	0	32248	
732	0	30620	
733	0	29384	
734	0	28750	
735	0	28656	
736	0	29060	
737	0	29876	
738	0	30332	
739	0	30128	
740	0	29640	
741	0	29352	
742	0	29548	
743	0	30292	
744	0	31504	
745	0	32968	
746	0	34532	
747	0	35920	
748	0	36300	
749	0	35388	
750	0	33722	
751	0	31968	
752	0	30416	
753	0	29200	
754	0	28602	
755	0	28544	
756	0	29020	
757	0	30012	
758	0	30456	
759	0	30040	
760	0	29512	
761	0	29280	
762	0	29528	
763	0	30273	
764	0	31476	
765	0	33024	
766	0	34692	
767	0	36172	
768	0	36572	
769	0	35656	
770	0	33976	
771	0	32128	
772	0	30508	
773	0	29212	
774	0	28488	
775	0	28400	
776	0	28936	
777	0	30032	
778	0	30456	
779	0	30080	
780	0	29580	
781	0	29292	
782	0	29520	
783	0	30316	
784	0	31504	
785	0	32980	
786	0	34652	
787	0	36200	
788	0	36584	
789	0	35626	
790	0	33944	
791	0	32168	
792	0	30644	
793	0	29448	
794	0	28792	
795	0	28616	
796	0	29000	
797	0	30036	
798	0	30648	
799	0	30376	
800	0	29748	
801	0	29436	
802	0	29672	
803	0	30560	
804	0	31914	
805	0	33476	
806	0	35040	
807	0	36496	
808	0	36864	
809	0	35984	
810	0	34312	
811	0	32528	
812	0	31002	
813	0	29752	
814	0	29064	
815	0	28932	
816	0	29392	
817	0	30332	
818	0	30772	
819	0	30480	
820	0	29944	
821	0	29722	
822	0	30024	
823	0	30768	
824	0	32040	
825	0	33600	
826	0	35176	
827	0	36604	
828	0	36960	
829	0	36052	
830	0	34360	
831	0	32440	
832	0	30828	
833	0	29576	
834	0	28980	
835	0	29016	
836	0	29648	
837	0	30660	
838	0	31072	
839	0	30800	
840	0	30328	
841	0	30036	
842	0	30196	
843	0	30972	
844	0	32304	
845	0	33884	
846	0	35508	
847	0	36896	
848	0	37180	
849	0	36184	
850	0	34600	
851	0	32836	
852	0	31176	
853	0	29916	
854	0	29360	
855	0	29316	
856	0	29808	
857	0	30764	
858	0	31132	
859	0	30792	
860	0	30328	
861	0	30164	
862	0	30484	
863	0	31336	
864	0	32620	
865	0	34148	
866	0	35772	
867	0	37140	
868	0	37364	
869	0	36364	
870	0	34652	
871	0	32752	
872	0	31116	
873	0	29956	
874	0	29440	
875	0	29520	
876	0	30112	
877	0	31074	
878	0	31450	
879	0	31116	
880	0	30612	
881	0	30328	
882	0	30596	
883	0	31432	
884	0	32660	
885	0	34120	
886	0	35684	
887	0	37128	
888	0	37388	
889	0	36344	
890	0	34680	
891	0	32944	
892	0	31332	
893	0	30084	
894	0	29400	
895	0	29336	
896	0	29920	
897	0	30936	
898	0	31316	
899	0	30872	
900	0	30292	
901	0	30170	
902	0	30444	
903	0	31212	
904	0	32504	
905	0	34060	
906	0	35752	
907	0	37120	
908	0	37324	
909	0	36360	
910	0	34620	
911	0	32816	
912	0	31340	
913	0	30172	
914	0	29541	
915	0	29380	
916	0	29888	
917	0	30912	
918	0	31312	
919	0	30953	
920	0	30520	
921	0	30400	
922	0	30724	
923	0	31504	
924	0	32632	
925	0	34116	
926	0	35778	
927	0	37220	
928	0	37512	
929	0	36512	
930	0	34820	
931	0	32960	
932	0	31296	
933	0	30012	
934	0	29428	
935	0	29476	
936	0	30088	
937	0	31106	
938	0	31380	
939	0	30848	
940	0	30288	
941	0	30176	
942	0	30576	
943	0	31424	
944	0	32688	
945	0	34224	
946	0	35924	
947	0	37344	
948	0	37504	
949	0	36404	
950	0	34628	
951	0	32808	
952	0	31184	
953	0	29988	
954	0	29456	
955	0	29496	
956	0	30088	
957	0	31108	
958	0	31480	
959	0	31172	
960	0	30808	
961	0	30656	
962	0	30924	
963	0	31682	
964	0	32964	
965	0	34508	
966	0	36040	
967	0	37370	
968	0	37612	
969	0	36580	
970	0	34812	
971	0	33040	
972	0	31528	
973	0	30428	
974	0	29826	
975	0	29764	
976	0	30280	
977	0	31184	
978	0	31472	
979	0	31110	
980	0	30628	
981	0	30404	
982	0	30688	
983	0	31604	
984	0	32956	
985	0	34488	
986	0	36116	
987	0	37512	
988	0	37664	
989	0	36568	
990	0	34806	
991	0	32936	
992	0	31288	
993	0	30084	
994	0	29504	
995	0	29564	
996	0	30320	
997	0	31420	
998	0	31688	
999	0	31250	
1000	0	30768	
1001	0	30626	
1002	0	30892	
1003	0	31740	
1004	0	33064	
1005	0	34592	
1006	0	36232	
1007	0	37604	
1008	0	37772	
1009	0	36688	
1010	0	34920	
1011	0	33056	
1012	0	31348	
1013	0	30128	
1014	0	29596	
1015	0	29688	
1016	0	30328	
1017	0	31308	
1018	0	31592	
1019	0	31216	
1020	0	30744	
1021	0	30528	
1022	0	30848	
1023	0	31752	
1024	0	33050	
1025	0	34576	
1026	0	36160	
1027	0	37476	
1028	0	37572	
1029	0	36480	
1030	0	34716	
1031	0	32852	
1032	0	31328	
1033	0	30333	
1034	0	29856	
1035	0	29944	
1036	0	30564	
1037	0	31468	
1038	0	31712	
1039	0	31352	
1040	0	30914	
1041	0	30800	
1042	0	31144	
1043	0	32040	
1044	0	33416	
1045	0	34944	
1046	0	36504	
1047	0	37756	
1048	0	37756	
1049	0	36576	
1050	0	34796	
1051	0	32984	
1052	0	31468	
1053	0	30424	
1054	0	29888	
1055	0	29956	
1056	0	30636	
1057	0	31580	
1058	0	31756	
1059	0	31268	
1060	0	30796	
1061	0	30648	
1062	0	31022	
1063	0	31948	
1064	0	33272	
1065	0	34748	
1066	0	36386	
1067	0	37816	
1068	0	37880	
1069	0	36656	
1070	0	34848	
1071	0	33004	
1072	0	31516	
1073	0	30480	
1074	0	30028	
1075	0	30104	
1076	0	30656	
1077	0	31568	
1078	0	31800	
1079	0	31392	
1080	0	30952	
1081	0	30816	
1082	0	31052	
1083	0	31920	
1084	0	33312	
1085	0	34838	
1086	0	36504	
1087	0	37888	
1088	0	37952	
1089	0	36744	
1090	0	34956	
1091	0	33164	
1092	0	31696	
1093	0	30680	
1094	0	30244	
1095	0	30376	
1096	0	31042	
1097	0	31948	
1098	0	32124	
1099	0	31748	
1100	0	31272	
1101	0	31140	
1102	0	31524	
1103	0	32384	
1104	0	33712	
1105	0	35348	
1106	0	37080	
1107	0	38380	
1108	0	38316	
1109	0	37008	
1110	0	35160	
1111	0	33248	
1112	0	31664	
1113	0	30616	
1114	0	30148	
1115	0	30276	
1116	0	31048	
1117	0	32096	
1118	0	32368	
1119	0	31932	
1120	0	31484	
1121	0	31416	
1122	0	31880	
1123	0	32848	
1124	0	34312	
1125	0	35976	
1126	0	37648	
1127	0	38904	
1128	0	38888	
1129	0	37756	
1130	0	35988	
1131	0	34144	
1132	0	32660	
1133	0	31676	
1134	0	31264	
1135	0	31416	
1136	0	32072	
1137	0	33008	
1138	0	33144	
1139	0	32588	
1140	0	32076	
1141	0	31912	
1142	0	32312	
1143	0	33292	
1144	0	34584	
1145	0	36080	
1146	0	37616	
1147	0	38784	
1148	0	38784	
1149	0	37600	
1150	0	35764	
1151	0	33916	
1152	0	32316	
1153	0	31176	
1154	0	30612	
1155	0	30600	
1156	0	31184	
1157	0	32010	
1158	0	32156	
1159	0	31744	
1160	0	31340	
1161	0	31272	
1162	0	31640	
1163	0	32580	
1164	0	33928	
1165	0	35432	
1166	0	36984	
1167	0	38036	
1168	0	37796	
1169	0	36416	
1170	0	34530	
1171	0	32648	
1172	0	31108	
1173	0	30082	
1174	0	29624	
1175	0	29760	
1176	0	30388	
1177	0	31252	
1178	0	31332	
1179	0	30860	
1180	0	30464	
1181	0	30392	
1182	0	30788	
1183	0	31674	
1184	0	32976	
1185	0	34488	
1186	0	36100	
1187	0	37392	
1188	0	37364	
1189	0	36120	
1190	0	34396	
1191	0	32632	
1192	0	31028	
1193	0	29888	
1194	0	29400	
1195	0	29472	
1196	0	30136	
1197	0	31016	
1198	0	31164	
1199	0	30776	
1200	0	30448	
1201	0	30404	
1202	0	30880	
1203	0	31876	
1204	0	33196	
1205	0	34764	
1206	0	36304	
1207	0	37328	
1208	0	37036	
1209	0	35748	
1210	0	33984	
1211	0	32280	
1212	0	30880	
1213	0	29906	
1214	0	29516	
1215	0	29664	
1216	0	30304	
1217	0	31196	
1218	0	31296	
1219	0	30876	
1220	0	30480	
1221	0	30426	
1222	0	30824	
1223	0	31708	
1224	0	33016	
1225	0	34624	
1226	0	36300	
1227	0	37488	
1228	0	37380	
1229	0	36104	
1230	0	34292	
1231	0	32508	
1232	0	31060	
1233	0	30076	
1234	0	29744	
1235	0	30000	
1236	0	30796	
1237	0	31732	
1238	0	31916	
1239	0	31580	
1240	0	31288	
1241	0	31397	
1242	0	32044	
1243	0	33156	
1244	0	34684	
1245	0	36340	
1246	0	38016	
1247	0	39280	
1248	0	39352	
1249	0	38444	
1250	0	37016	
1251	0	35540	
1252	0	34344	
1253	0	33456	
1254	0	33084	
1255	0	33400	
1256	0	34404	
1257	0	35536	
1258	0	35756	
1259	0	35264	
1260	0	34946	
1261	0	35176	
1262	0	36024	
1263	0	37612	
1264	0	39720	
1265	0	41864	
1266	0	43980	
1267	0	45536	
1268	0	45580	
1269	0	44212	
1270	0	42092	
1271	0	39856	
1272	0	37648	
1273	0	35672	
1274	0	34392	
1275	0	33840	
1276	0	34056	
1277	0	34580	
1278	0	34428	
1279	0	33760	
1280	0	33160	
1281	0	32909	
1282	0	33272	
1283	0	34156	
1284	0	35392	
1285	0	36952	
1286	0	38556	
1287	0	39612	
1288	0	39308	
1289	0	37832	
1290	0	35792	
1291	0	33796	
1292	0	32112	
1293	0	31012	
1294	0	30428	
1295	0	30410	
1296	0	30928	
1297	0	31556	
1298	0	31364	
1299	0	30752	
1300	0	30238	
1301	0	30104	
1302	0	30440	
1303	0	31336	
1304	0	32684	
1305	0	34256	
1306	0	35836	
1307	0	36884	
1308	0	36660	
1309	0	35300	
1310	0	33532	
1311	0	31760	
1312	0	30250	
1313	0	29264	
1314	0	28840	
1315	0	28988	
1316	0	29726	
1317	0	30548	
1318	0	30552	
1319	0	30008	
1320	0	29640	
1321	0	29609	
1322	0	30080	
1323	0	31064	
1324	0	32444	
1325	0	34056	
1326	0	35676	
1327	0	36760	
1328	0	36540	
1329	0	35184	
1330	0	33368	
1331	0	31568	
1332	0	30096	
1333	0	29144	
1334	0	28788	
1335	0	28976	
1336	0	29744	
1337	0	30596	
1338	0	30652	
1339	0	30124	
1340	0	29716	
1341	0	29724	
1342	0	30265	
1343	0	31440	
1344	0	32932	
1345	0	34476	
1346	0	36004	
1347	0	37024	
1348	0	36732	
1349	0	35368	
1350	0	33524	
1351	0	31716	
1352	0	30224	
1353	0	29284	
1354	0	28940	
1355	0	29196	
1356	0	30072	
1357	0	30912	
1358	0	30904	
1359	0	30444	
1360	0	30156	
1361	0	30168	
1362	0	30648	
1363	0	31636	
1364	0	32974	
1365	0	34512	
1366	0	36104	
1367	0	37128	
1368	0	36784	
1369	0	35400	
1370	0	33600	
1371	0	31932	
1372	0	30562	
1373	0	29704	
1374	0	29376	
1375	0	29572	
1376	0	30384	
1377	0	31264	
1378	0	31312	
1379	0	30868	
1380	0	30492	
1381	0	30400	
1382	0	30764	
1383	0	31712	
1384	0	33068	
1385	0	34592	
1386	0	36168	
1387	0	37228	
1388	0	36988	
1389	0	35700	
1390	0	33952	
1391	0	32188	
1392	0	30748	
1393	0	29872	
1394	0	29536	
1395	0	29772	
1396	0	30544	
1397	0	31332	
1398	0	31264	
1399	0	30820	
1400	0	30556	
1401	0	30556	
1402	0	31084	
1403	0	32120	
1404	0	33460	
1405	0	35008	
1406	0	36640	
1407	0	37700	
1408	0	37424	
1409	0	36108	
1410	0	34356	
1411	0	32652	
1412	0	31120	
1413	0	30138	
1414	0	29784	
1415	0	29992	
1416	0	30752	
1417	0	31528	
1418	0	31576	
1419	0	31144	
1420	0	30760	
1421	0	30834	
1422	0	31360	
1423	0	32452	
1424	0	33892	
1425	0	35488	
1426	0	37048	
1427	0	37980	
1428	0	37664	
1429	0	36308	
1430	0	34508	
1431	0	32744	
1432	0	31284	
1433	0	30372	
1434	0	30136	
1435	0	30460	
1436	0	31244	
1437	0	32040	
1438	0	32020	
1439	0	31560	
1440	0	31256	
1441	0	31280	
1442	0	31796	
1443	0	32824	
1444	0	34172	
1445	0	35720	
1446	0	37304	
1447	0	38248	
1448	0	37904	
1449	0	36620	
1450	0	34912	
1451	0	33232	
1452	0	31844	
1453	0	30964	
1454	0	30616	
1455	0	30892	
1456	0	31808	
1457	0	32628	
1458	0	32636	
1459	0	32124	
1460	0	31760	
1461	0	31768	
1462	0	32296	
1463	0	33332	
1464	0	34752	
1465	0	36416	
1466	0	38092	
1467	0	39036	
1468	0	38640	
1469	0	37272	
1470	0	35492	
1471	0	33820	
1472	0	32440	
1473	0	31556	
1474	0	31228	
1475	0	31484	
1476	0	32288	
1477	0	32972	
1478	0	32924	
1479	0	32536	
1480	0	32280	
1481	0	32376	
1482	0	32944	
1483	0	33968	
1484	0	35336	
1485	0	36908	
1486	0	38514	
1487	0	39480	
1488	0	39136	
1489	0	37724	
1490	0	35892	
1491	0	34244	
1492	0	32844	
1493	0	31908	
1494	0	31556	
1495	0	31884	
1496	0	32712	
1497	0	33416	
1498	0	33320	
1499	0	32860	
1500	0	32492	
1501	0	32492	
1502	0	32996	
1503	0	34080	
1504	0	35480	
1505	0	37048	
1506	0	38660	
1507	0	39592	
1508	0	39184	
1509	0	37760	
1510	0	35932	
1511	0	34208	
1512	0	32792	
1513	0	31914	
1514	0	31536	
1515	0	31752	
1516	0	32592	
1517	0	33292	
1518	0	33176	
1519	0	32648	
1520	0	32346	
1521	0	32482	
1522	0	33096	
1523	0	34100	
1524	0	35436	
1525	0	36912	
1526	0	38468	
1527	0	39344	
1528	0	38820	
1529	0	37288	
1530	0	35396	
1531	0	33552	
1532	0	32024	
1533	0	31144	
1534	0	30908	
1535	0	31192	
1536	0	31952	
1537	0	32600	
1538	0	32472	
1539	0	31880	
1540	0	31512	
1541	0	31488	
1542	0	31876	
1543	0	32920	
1544	0	34332	
1545	0	35880	
1546	0	37380	
1547	0	38148	
1548	0	37648	
1549	0	36060	
1550	0	34112	
1551	0	32290	
1552	0	30768	
1553	0	29876	
1554	0	29664	
1555	0	30080	
1556	0	30896	
1557	0	31460	
1558	0	31168	
1559	0	30548	
1560	0	30126	
1561	0	30104	
1562	0	30576	
1563	0	31600	
1564	0	33040	
1565	0	34558	
1566	0	36048	
1567	0	36868	
1568	0	36384	
1569	0	34884	
1570	0	32980	
1571	0	31140	
1572	0	29716	
1573	0	28980	
1574	0	28724	
1575	0	28962	
1576	0	29816	
1577	0	30488	
1578	0	30344	
1579	0	29801	
1580	0	29420	
1581	0	29452	
1582	0	29964	
1583	0	30964	
1584	0	32376	
1585	0	33972	
1586	0	35660	
1587	0	36480	
1588	0	35908	
1589	0	34360	
1590	0	32484	
1591	0	30728	
1592	0	29342	
1593	0	28636	
1594	0	28410	
1595	0	28756	
1596	0	29650	
1597	0	30304	
1598	0	30112	
1599	0	29640	
1600	0	29364	
1601	0	29448	
1602	0	30060	
1603	0	31192	
1604	0	32628	
1605	0	34192	
1606	0	35752	
1607	0	36504	
1608	0	35888	
1609	0	34416	
1610	0	32652	
1611	0	30968	
1612	0	29520	
1613	0	28624	
1614	0	28372	
1615	0	28784	
1616	0	29664	
1617	0	30296	
1618	0	30128	
1619	0	29616	
1620	0	29276	
1621	0	29348	
1622	0	29896	
1623	0	30924	
1624	0	32349	
1625	0	33968	
1626	0	35688	
1627	0	36564	
1628	0	35992	
1629	0	34424	
1630	0	32548	
1631	0	30860	
1632	0	29540	
1633	0	28773	
1634	0	28512	
1635	0	28850	
1636	0	29800	
1637	0	30552	
1638	0	30464	
1639	0	29996	
1640	0	29760	
1641	0	29872	
1642	0	30392	
1643	0	31424	
1644	0	32796	
1645	0	34336	
1646	0	35932	
1647	0	36808	
1648	0	36216	
1649	0	34648	
1650	0	32832	
1651	0	31192	
1652	0	29812	
1653	0	28912	
1654	0	28656	
1655	0	29018	
1656	0	29884	
1657	0	30490	
1658	0	30340	
1659	0	29876	
1660	0	29632	
1661	0	29792	
1662	0	30420	
1663	0	31572	
1664	0	33056	
1665	0	34648	
1666	0	36232	
1667	0	36969	
1668	0	36308	
1669	0	34776	
1670	0	32992	
1671	0	31312	
1672	0	29952	
1673	0	29190	
1674	0	29040	
1675	0	29460	
1676	0	30456	
1677	0	31064	
1678	0	30824	
1679	0	30348	
1680	0	30072	
1681	0	30188	
1682	0	30770	
1683	0	31916	
1684	0	33344	
1685	0	34892	
1686	0	36488	
1687	0	37248	
1688	0	36572	
1689	0	35040	
1690	0	33192	
1691	0	31482	
1692	0	30128	
1693	0	29416	
1694	0	29292	
1695	0	29612	
1696	0	30504	
1697	0	31140	
1698	0	30904	
1699	0	30348	
1700	0	30050	
1701	0	30216	
1702	0	30920	
1703	0	32060	
1704	0	33484	
1705	0	35044	
1706	0	36628	
1707	0	37376	
1708	0	36736	
1709	0	35172	
1710	0	33372	
1711	0	31682	
1712	0	30336	
1713	0	29648	
1714	0	29496	
1715	0	29872	
1716	0	30812	
1717	0	31468	
1718	0	31216	
1719	0	30568	
1720	0	30232	
1721	0	30332	
1722	0	30944	
1723	0	32104	
1724	0	33528	
1725	0	35088	
1726	0	36634	
1727	0	37320	
1728	0	36658	
1729	0	35128	
1730	0	33304	
1731	0	31732	
1732	0	30432	
1733	0	29644	
1734	0	29448	
1735	0	29792	
1736	0	30736	
1737	0	31336	
1738	0	31096	
1739	0	30556	
1740	0	30256	
1741	0	30412	
1742	0	31052	
1743	0	32240	
1744	0	33684	
1745	0	35292	
1746	0	36884	
1747	0	37520	
1748	0	36760	
1749	0	35180	
1750	0	33396	
1751	0	31736	
1752	0	30336	
1753	0	29560	
1754	0	29468	
1755	0	29944	
1756	0	30876	
1757	0	31456	
1758	0	31192	
1759	0	30608	
1760	0	30292	
1761	0	30388	
1762	0	31052	
1763	0	32164	
1764	0	33544	
1765	0	35120	
1766	0	36696	
1767	0	37392	
1768	0	36704	
1769	0	35156	
1770	0	33268	
1771	0	31600	
1772	0	30376	
1773	0	29636	
1774	0	29416	
1775	0	29792	
1776	0	30740	
1777	0	31332	
1778	0	31072	
1779	0	30508	
1780	0	30220	
1781	0	30384	
1782	0	31104	
1783	0	32316	
1784	0	33792	
1785	0	35372	
1786	0	36880	
1787	0	37424	
1788	0	36684	
1789	0	35120	
1790	0	33316	
1791	0	31732	
1792	0	30492	
1793	0	29720	
1794	0	29516	
1795	0	29968	
1796	0	30896	
1797	0	31384	
1798	0	31088	
1799	0	30608	
1800	0	30396	
1801	0	30560	
1802	0	31188	
1803	0	32340	
1804	0	33908	
1805	0	35520	
1806	0	36972	
1807	0	37460	
1808	0	36576	
1809	0	34928	
1810	0	33112	
1811	0	31488	
1812	0	30264	
1813	0	29624	
1814	0	29572	
1815	0	30080	
1816	0	30968	
1817	0	31416	
1818	0	31176	
1819	0	30682	
1820	0	30420	
1821	0	30564	
1822	0	31240	
1823	0	32432	
1824	0	33824	
1825	0	35412	
1826	0	36916	
1827	0	37492	
1828	0	36788	
1829	0	35204	
1830	0	33368	
1831	0	31684	
1832	0	30416	
1833	0	29688	
1834	0	29580	
1835	0	30036	
1836	0	30948	
1837	0	31440	
1838	0	31185	
1839	0	30660	
1840	0	30372	
1841	0	30568	
1842	0	31272	
1843	0	32436	
1844	0	33928	
1845	0	35528	
1846	0	37008	
1847	0	37468	
1848	0	36640	
1849	0	35092	
1850	0	33312	
1851	0	31656	
1852	0	30392	
1853	0	29652	
1854	0	29444	
1855	0	29906	
1856	0	30884	
1857	0	31496	
1858	0	31320	
1859	0	30876	
1860	0	30546	
1861	0	30692	
1862	0	31328	
1863	0	32512	
1864	0	33992	
1865	0	35568	
1866	0	37032	
1867	0	37632	
1868	0	36872	
1869	0	35328	
1870	0	33600	
1871	0	31964	
1872	0	30644	
1873	0	29940	
1874	0	29810	
1875	0	30236	
1876	0	31140	
1877	0	31648	
1878	0	31312	
1879	0	30760	
1880	0	30508	
1881	0	30712	
1882	0	31384	
1883	0	32492	
1884	0	33952	
1885	0	35556	
1886	0	37048	
1887	0	37584	
1888	0	36760	
1889	0	35060	
1890	0	33240	
1891	0	31736	
1892	0	30480	
1893	0	29732	
1894	0	29596	
1895	0	30052	
1896	0	31000	
1897	0	31592	
1898	0	31384	
1899	0	30860	
1900	0	30582	
1901	0	30752	
1902	0	31392	
1903	0	32516	
1904	0	33912	
1905	0	35480	
1906	0	37040	
1907	0	37672	
1908	0	36964	
1909	0	35488	
1910	0	33768	
1911	0	32160	
1912	0	30824	
1913	0	30048	
1914	0	29840	
1915	0	30196	
1916	0	31088	
1917	0	31668	
1918	0	31416	
1919	0	30888	
1920	0	30604	
1921	0	30768	
1922	0	31424	
1923	0	32528	
1924	0	33912	
1925	0	35504	
1926	0	37104	
1927	0	37744	
1928	0	37040	
1929	0	35452	
1930	0	33628	
1931	0	31996	
1932	0	30752	
1933	0	30168	
1934	0	30052	
1935	0	30308	
1936	0	31184	
1937	0	31812	
1938	0	31752	
1939	0	31352	
1940	0	31124	
1941	0	31240	
1942	0	31944	
1943	0	33160	
1944	0	34580	
1945	0	36064	
1946	0	37520	
1947	0	38076	
1948	0	37320	
1949	0	35780	
1950	0	34020	
1951	0	32432	
1952	0	31224	
1953	0	30480	
1954	0	30296	
1955	0	30744	
1956	0	31652	
1957	0	32184	
1958	0	31944	
1959	0	31436	
1960	0	31152	
1961	0	31308	
1962	0	31876	
1963	0	33056	
1964	0	34564	
1965	0	36184	
1966	0	37754	
1967	0	38464	
1968	0	37824	
1969	0	36352	
1970	0	34664	
1971	0	33032	
1972	0	31656	
1973	0	30868	
1974	0	30760	
1975	0	31212	
1976	0	32130	
1977	0	32775	
1978	0	32692	
1979	0	32236	
1980	0	31940	
1981	0	31986	
1982	0	32492	
1983	0	33584	
1984	0	35064	
1985	0	36620	
1986	0	38128	
1987	0	38848	
1988	0	38224	
1989	0	36620	
1990	0	34768	
1991	0	33032	
1992	0	31716	
1993	0	30988	
1994	0	30880	
1995	0	31250	
1996	0	32112	
1997	0	32664	
1998	0	32448	
1999	0	31972	
2000	0	31676	
2001	0	31668	
2002	0	32096	
2003	0	33116	
2004	0	34484	
2005	0	35984	
2006	0	37516	
2007	0	38234	
2008	0	37616	
2009	0	36068	
2010	0	34212	
2011	0	32488	
2012	0	30964	
2013	0	29984	
2014	0	29596	
2015	0	29796	
2016	0	30632	
2017	0	31208	
2018	0	31116	
2019	0	30652	
2020	0	30208	
2021	0	30284	
2022	0	30904	
2023	0	32076	
2024	0	33444	
2025	0	34916	
2026	0	36480	
2027	0	37248	
2028	0	36592	
2029	0	35060	
2030	0	33264	
2031	0	31568	
2032	0	30188	
2033	0	29344	
2034	0	29112	
2035	0	29542	
2036	0	30460	
2037	0	31064	
2038	0	30812	
2039	0	30394	
2040	0	30184	
2041	0	30276	
2042	0	30780	
2043	0	31920	
2044	0	33368	
2045	0	34960	
2046	0	36520	
2047	0	37252	
2048	0	36600	
2049	0	35076	
2050	0	33216	
2051	0	31576	
2052	0	30266	
2053	0	29464	
2054	0	29264	
2055	0	29644	
2056	0	30568	
2057	0	31268	
2058	0	31180	
2059	0	30700	
2060	0	30376	
2061	0	30464	
2062	0	31068	
2063	0	32144	
2064	0	33532	
2065	0	35152	
2066	0	36744	
2067	0	37456	
2068	0	36840	
2069	0	35380	
2070	0	33592	
2071	0	31936	
2072	0	30576	
2073	0	29776	
2074	0	29560	
2075	0	29848	
2076	0	30664	
2077	0	31312	
2078	0	31256	
2079	0	30896	
2080	0	30648	
2081	0	30768	
2082	0	31516	
2083	0	32804	
2084	0	34388	
2085	0	36060	
2086	0	37800	
2087	0	38740	
2088	0	38300	
2089	0	36920	
2090	0	35272	
2091	0	33820	
2092	0	32764	
2093	0	32388	
2094	0	32644	
2095	0	33396	
2096	0	34612	
2097	0	35520	
2098	0	35452	
2099	0	34952	
2100	0	34688	
2101	0	34760	
2102	0	35328	
2103	0	36508	
2104	0	38028	
2105	0	39732	
2106	0	41596	
2107	0	42992	
2108	0	43308	
2109	0	42828	
2110	0	41960	
2111	0	40892	
2112	0	39604	
2113	0	38516	
2114	0	37808	
2115	0	37568	
2116	0	37760	
2117	0	37672	
2118	0	36612	
2119	0	35320	
2120	0	34360	
2121	0	34088	
2122	0	34520	
2123	0	35544	
2124	0	36820	
2125	0	38088	
2126	0	39408	
2127	0	39984	
2128	0	39312	
2129	0	37852	
2130	0	36092	
2131	0	34404	
2132	0	32928	
2133	0	31912	
2134	0	31408	
2135	0	31552	
2136	0	32124	
2137	0	32540	
2138	0	32200	
2139	0	31544	
2140	0	31000	
2141	0	30720	
2142	0	30914	
2143	0	31828	
2144	0	32992	
2145	0	34360	
2146	0	35832	
2147	0	36684	
2148	0	36128	
2149	0	34644	
2150	0	32828	
2151	0	31188	
2152	0	29912	
2153	0	29084	
2154	0	28776	
2155	0	29042	
2156	0	29852	
2157	0	30580	
2158	0	30488	
2159	0	30052	
2160	0	29808	
2161	0	29762	
2162	0	30208	
2163	0	31188	
2164	0	32592	
2165	0	34196	
2166	0	35812	
2167	0	36660	
2168	0	36148	
2169	0	34692	
2170	0	32860	
2171	0	31132	
2172	0	29788	
2173	0	28972	
2174	0	28660	
2175	0	28904	
2176	0	29736	
2177	0	30512	
2178	0	30408	
2179	0	29936	
2180	0	29636	
2181	0	29768	
2182	0	30268	
2183	0	31240	
2184	0	32568	
2185	0	34088	
2186	0	35616	
2187	0	36536	
2188	0	36100	
2189	0	34616	
2190	0	32792	
2191	0	31086	
2192	0	29708	
2193	0	28952	
2194	0	28784	
2195	0	29088	
2196	0	29892	
2197	0	30628	
2198	0	30520	
2199	0	30052	
2200	0	29712	
2201	0	29800	
2202	0	30352	
2203	0	31418	
2204	0	32732	
2205	0	34280	
2206	0	35896	
2207	0	36784	
2208	0	36312	
2209	0	34934	
2210	0	33240	
2211	0	31564	
2212	0	30120	
2213	0	29216	
2214	0	28992	
2215	0	29408	
2216	0	30208	
2217	0	30864	
2218	0	30796	
2219	0	30370	
2220	0	29984	
2221	0	29996	
2222	0	30500	
2223	0	31524	
2224	0	32908	
2225	0	34456	
2226	0	35996	
2227	0	36968	
2228	0	36608	
2229	0	35104	
2230	0	33300	
2231	0	31664	
2232	0	30376	
2233	0	29490	
2234	0	29112	
2235	0	29428	
2236	0	30376	
2237	0	31268	
2238	0	31272	
2239	0	30680	
2240	0	30200	
2241	0	30236	
2242	0	30736	
2243	0	31844	
2244	0	33244	
2245	0	34796	
2246	0	36400	
2247	0	37372	
2248	0	37004	
2249	0	35652	
2250	0	33900	
2251	0	32204	
2252	0	30828	
2253	0	29946	
2254	0	29624	
2255	0	29856	
2256	0	30640	
2257	0	31376	
2258	0	31364	
2259	0	30936	
2260	0	30644	
2261	0	30696	
2262	0	31264	
2263	0	32344	
2264	0	33696	
2265	0	35180	
2266	0	36692	
2267	0	37532	
2268	0	37124	
2269	0	35732	
2270	0	34004	
2271	0	32348	
2272	0	30972	
2273	0	30168	
2274	0	29948	
2275	0	30224	
2276	0	31000	
2277	0	31696	
2278	0	31632	
2279	0	31248	
2280	0	31004	
2281	0	30988	
2282	0	31468	
2283	0	32544	
2284	0	33980	
2285	0	35588	
2286	0	37160	
2287	0	38084	
2288	0	37736	
2289	0	36408	
2290	0	34730	
2291	0	33072	
2292	0	31640	
2293	0	30732	
2294	0	30424	
2295	0	30680	
2296	0	31492	
2297	0	32284	
2298	0	32376	
2299	0	31972	
2300	0	31584	
2301	0	31568	
2302	0	32012	
2303	0	33044	
2304	0	34428	
2305	0	35980	
2306	0	37608	
2307	0	38664	
2308	0	38320	
2309	0	36896	
2310	0	35136	
2311	0	33464	
2312	0	32072	
2313	0	31242	
2314	0	30920	
2315	0	31116	
2316	0	31884	
2317	0	32688	
2318	0	32762	
2319	0	32404	
2320	0	32056	
2321	0	32000	
2322	0	32464	
2323	0	33470	
2324	0	34900	
2325	0	36520	
2326	0	38096	
2327	0	39080	
2328	0	38796	
2329	0	37464	
2330	0	35764	
2331	0	34104	
2332	0	32752	
2333	0	31944	
2334	0	31668	
2335	0	31912	
2336	0	32624	
2337	0	33300	
2338	0	33212	
2339	0	32752	
2340	0	32592	
2341	0	32600	
2342	0	33056	
2343	0	34104	
2344	0	35452	
2345	0	36896	
2346	0	38420	
2347	0	39444	
2348	0	39208	
2349	0	37952	
2350	0	36140	
2351	0	34444	
2352	0	33036	
2353	0	32100	
2354	0	31700	
2355	0	31901	
2356	0	32656	
2357	0	33336	
2358	0	33236	
2359	0	32864	
2360	0	32548	
2361	0	32408	
2362	0	32756	
2363	0	33736	
2364	0	35052	
2365	0	36536	
2366	0	38080	
2367	0	39112	
2368	0	38932	
2369	0	37636	
2370	0	35888	
2371	0	34192	
2372	0	32768	
2373	0	31716	
2374	0	31240	
2375	0	31384	
2376	0	32072	
2377	0	32792	
2378	0	32730	
2379	0	32216	
2380	0	31796	
2381	0	31704	
2382	0	32144	
2383	0	33080	
2384	0	34392	
2385	0	35844	
2386	0	37380	
2387	0	38416	
2388	0	38068	
2389	0	36592	
2390	0	34728	
2391	0	32952	
2392	0	31480	
2393	0	30488	
2394	0	30052	
2395	0	30144	
2396	0	30746	
2397	0	31472	
2398	0	31408	
2399	0	30856	
2400	0	30430	
2401	0	30372	
2402	0	30828	
2403	0	31828	
2404	0	33168	
2405	0	34616	
2406	0	36060	
2407	0	37024	
2408	0	36716	
2409	0	35234	
2410	0	33320	
2411	0	31496	
2412	0	30080	
2413	0	29128	
2414	0	28640	
2415	0	28716	
2416	0	29394	
2417	0	30262	
2418	0	30368	
2419	0	29948	
2420	0	29486	
2421	0	29400	
2422	0	29808	
2423	0	30720	
2424	0	32048	
2425	0	33660	
2426	0	35288	
2427	0	36348	
2428	0	35960	
2429	0	34536	
2430	0	32760	
2431	0	31032	
2432	0	29636	
2433	0	28696	
2434	0	28340	
2435	0	28560	
2436	0	29372	
2437	0	30216	
2438	0	30152	
2439	0	29588	
2440	0	29196	
2441	0	29120	
2442	0	29584	
2443	0	30632	
2444	0	31996	
2445	0	33600	
2446	0	35208	
2447	0	36245	
2448	0	35982	
2449	0	34640	
2450	0	32900	
2451	0	31168	
2452	0	29696	
2453	0	28752	
2454	0	28352	
2455	0	28482	
2456	0	29144	
2457	0	30048	
2458	0	30224	
2459	0	29768	
2460	0	29360	
2461	0	29300	
2462	0	29744	
2463	0	30700	
2464	0	32088	
2465	0	33628	
2466	0	35264	
2467	0	36352	
2468	0	36180	
2469	0	34880	
2470	0	32972	
2471	0	31196	
2472	0	29844	
2473	0	28948	
2474	0	28584	
2475	0	28756	
2476	0	29480	
2477	0	30248	
2478	0	30152	
2479	0	29680	
2480	0	29336	
2481	0	29252	
2482	0	29684	
2483	0	30680	
2484	0	32088	
2485	0	33728	
2486	0	35360	
2487	0	36476	
2488	0	36228	
2489	0	34904	
2490	0	33184	
2491	0	31456	
2492	0	30068	
2493	0	29100	
2494	0	28616	
2495	0	28740	
2496	0	29536	
2497	0	30480	
2498	0	30588	
2499	0	30160	
2500	0	29776	
2501	0	29688	
2502	0	30008	
2503	0	30892	
2504	0	32256	
2505	0	33916	
2506	0	35716	
2507	0	36924	
2508	0	36744	
2509	0	35368	
2510	0	33524	
2511	0	31760	
2512	0	30352	
2513	0	29352	
2514	0	28996	
2515	0	29104	
2516	0	29678	
2517	0	30448	
2518	0	30568	
2519	0	30144	
2520	0	29772	
2521	0	29740	
2522	0	30161	
2523	0	31104	
2524	0	32476	
2525	0	34076	
2526	0	35720	
2527	0	36944	
2528	0	36842	
2529	0	35484	
2530	0	33712	
2531	0	31976	
2532	0	30522	
2533	0	29596	
2534	0	29256	
2535	0	29436	
2536	0	30148	
2537	0	31060	
2538	0	31124	
2539	0	30552	
2540	0	30112	
2541	0	30010	
2542	0	30378	
2543	0	31320	
2544	0	32768	
2545	0	34308	
2546	0	35884	
2547	0	36984	
2548	0	36792	
2549	0	35532	
2550	0	33804	
2551	0	32204	
2552	0	30880	
2553	0	29956	
2554	0	29556	
2555	0	29652	
2556	0	30249	
2557	0	31044	
2558	0	31208	
2559	0	30796	
2560	0	30332	
2561	0	30156	
2562	0	30564	
2563	0	31524	
2564	0	32896	
2565	0	34456	
2566	0	36032	
2567	0	37144	
2568	0	37008	
2569	0	35764	
2570	0	34000	
2571	0	32216	
2572	0	30808	
2573	0	29992	
2574	0	29696	
2575	0	29808	
2576	0	30392	
2577	0	31236	
2578	0	31350	
2579	0	30882	
2580	0	30408	
2581	0	30264	
2582	0	30692	
2583	0	31676	
2584	0	33088	
2585	0	34664	
2586	0	36292	
2587	0	37440	
2588	0	37204	
2589	0	35888	
2590	0	34144	
2591	0	32378	
2592	0	31000	
2593	0	29992	
2594	0	29492	
2595	0	29612	
2596	0	30244	
2597	0	31192	
2598	0	31332	
2599	0	30904	
2600	0	30444	
2601	0	30320	
2602	0	30740	
2603	0	31684	
2604	0	33068	
2605	0	34612	
2606	0	36280	
2607	0	37504	
2608	0	37332	
2609	0	35992	
2610	0	34176	
2611	0	32376	
2612	0	30872	
2613	0	29844	
2614	0	29440	
2615	0	29644	
2616	0	30380	
2617	0	31236	
2618	0	31288	
2619	0	30840	
2620	0	30480	
2621	0	30440	
2622	0	30904	
2623	0	31820	
2624	0	33104	
2625	0	34656	
2626	0	36284	
2627	0	37512	
2628	0	37344	
2629	0	36010	
2630	0	34228	
2631	0	32528	
2632	0	31116	
2633	0	30168	
2634	0	29812	
2635	0	29912	
2636	0	30548	
2637	0	31384	
2638	0	31456	
2639	0	30972	
2640	0	30544	
2641	0	30548	
2642	0	30938	
2643	0	31792	
2644	0	33064	
2645	0	34628	
2646	0	36252	
2647	0	37384	
2648	0	37224	
2649	0	35936	
2650	0	34136	
2651	0	32324	
2652	0	30880	
2653	0	30028	
2654	0	29736	
2655	0	29936	
2656	0	30692	
2657	0	31548	
2658	0	31562	
2659	0	31036	
2660	0	30596	
2661	0	30444	
2662	0	30872	
2663	0	31836	
2664	0	33276	
2665	0	34828	
2666	0	36380	
2667	0	37456	
2668	0	37244	
2669	0	35968	
2670	0	34296	
2671	0	32604	
2672	0	31148	
2673	0	30184	
2674	0	29768	
2675	0	29902	
2676	0	30620	
2677	0	31456	
2678	0	31424	
2679	0	30928	
2680	0	30626	
2681	0	30620	
2682	0	31048	
2683	0	32064	
2684	0	33424	
2685	0	34896	
2686	0	36432	
2687	0	37532	
2688	0	37368	
2689	0	36104	
2690	0	34372	
2691	0	32692	
2692	0	31316	
2693	0	30408	
2694	0	30016	
2695	0	30162	
2696	0	30924	
2697	0	31700	
2698	0	31628	
2699	0	31148	
2700	0	30816	
2701	0	30772	
2702	0	31208	
2703	0	32120	
2704	0	33476	
2705	0	35056	
2706	0	36632	
2707	0	37664	
2708	0	37360	
2709	0	36008	
2710	0	34284	
2711	0	32624	
2712	0	31256	
2713	0	30344	
2714	0	30044	
2715	0	30260	
2716	0	30964	
2717	0	31728	
2718	0	31716	
2719	0	31172	
2720	0	30698	
2721	0	30604	
2722	0	31068	
2723	0	32090	
2724	0	33552	
2725	0	35096	
2726	0	36740	
2727	0	37832	
2728	0	37592	
2729	0	36160	
2730	0	34368	
2731	0	32748	
2732	0	31368	
2733	0	30456	
2734	0	30128	
2735	0	30368	
2736	0	31128	
2737	0	31992	
2738	0	32080	
2739	0	31628	
2740	0	31236	
2741	0	31136	
2742	0	31476	
2743	0	32448	
2744	0	33784	
2745	0	35244	
2746	0	36784	
2747	0	37832	
2748	0	37516	
2749	0	36120	
2750	0	34344	
2751	0	32568	
2752	0	31168	
2753	0	30250	
2754	0	29890	
2755	0	30192	
2756	0	31052	
2757	0	31892	
2758	0	31920	
2759	0	31352	
2760	0	30976	
2761	0	30944	
2762	0	31416	
2763	0	32440	
2764	0	33728	
2765	0	35220	
2766	0	36776	
2767	0	37792	
2768	0	37556	
2769	0	36293	
2770	0	34432	
2771	0	32620	
2772	0	31240	
2773	0	30384	
2774	0	30154	
2775	0	30496	
2776	0	31292	
2777	0	31956	
2778	0	31892	
2779	0	31360	
2780	0	30952	
2781	0	30952	
2782	0	31432	
2783	0	32368	
2784	0	33624	
2785	0	35148	
2786	0	36756	
2787	0	37724	
2788	0	37380	
2789	0	36096	
2790	0	34512	
2791	0	32856	
2792	0	31380	
2793	0	30508	
2794	0	30164	
2795	0	30356	
2796	0	31228	
2797	0	32066	
2798	0	32150	
2799	0	31720	
2800	0	31320	
2801	0	31332	
2802	0	31896	
2803	0	33008	
2804	0	34388	
2805	0	35852	
2806	0	37340	
2807	0	38288	
2808	0	37972	
2809	0	36656	
2810	0	34904	
2811	0	33240	
2812	0	31808	
2813	0	30908	
2814	0	30568	
2815	0	30728	
2816	0	31500	
2817	0	32288	
2818	0	32304	
2819	0	31812	
2820	0	31344	
2821	0	31264	
2822	0	31808	
2823	0	32924	
2824	0	34288	
2825	0	35828	
2826	0	37424	
2827	0	38432	
2828	0	38208	
2829	0	36944	
2830	0	35324	
2831	0	33740	
2832	0	32392	
2833	0	31516	
2834	0	31184	
2835	0	31468	
2836	0	32306	
2837	0	33128	
2838	0	33154	
2839	0	32696	
2840	0	32272	
2841	0	32212	
2842	0	32684	
2843	0	33672	
2844	0	34970	
2845	0	36404	
2846	0	37976	
2847	0	38956	
2848	0	38644	
2849	0	37332	
2850	0	35552	
2851	0	33776	
2852	0	32340	
2853	0	31512	
2854	0	31168	
2855	0	31304	
2856	0	32002	
2857	0	32684	
2858	0	32512	
2859	0	31944	
2860	0	31628	
2861	0	31776	
2862	0	32284	
2863	0	33152	
2864	0	34392	
2865	0	35776	
2866	0	37284	
2867	0	38352	
2868	0	38064	
2869	0	36684	
2870	0	34776	
2871	0	32908	
2872	0	31412	
2873	0	30400	
2874	0	29936	
2875	0	30012	
2876	0	30632	
2877	0	31296	
2878	0	31296	
2879	0	30912	
2880	0	30480	
2881	0	30356	
2882	0	30868	
2883	0	31888	
2884	0	33220	
2885	0	34668	
2886	0	36176	
2887	0	37192	
2888	0	36848	
2889	0	35524	
2890	0	33872	
2891	0	32296	
2892	0	31052	
2893	0	30168	
2894	0	29892	
2895	0	30100	
2896	0	30808	
2897	0	31588	
2898	0	31616	
2899	0	31068	
2900	0	30608	
2901	0	30564	
2902	0	31124	
2903	0	32032	
2904	0	33260	
2905	0	34636	
2906	0	36192	
2907	0	37224	
2908	0	36952	
2909	0	35536	
2910	0	33760	
2911	0	32140	
2912	0	30864	
2913	0	30036	
2914	0	29752	
2915	0	29980	
2916	0	30704	
2917	0	31476	
2918	0	31592	
2919	0	31216	
2920	0	30860	
2921	0	30820	
2922	0	31224	
2923	0	32104	
2924	0	33396	
2925	0	34752	
2926	0	36244	
2927	0	37308	
2928	0	37020	
2929	0	35620	
2930	0	33956	
2931	0	32324	
2932	0	30978	
2933	0	30096	
2934	0	29708	
2935	0	29904	
2936	0	30772	
2937	0	31780	
2938	0	31876	
2939	0	31384	
2940	0	30992	
2941	0	30960	
2942	0	31584	
2943	0	32752	
2944	0	34228	
2945	0	35880	
2946	0	37720	
2947	0	39012	
2948	0	39056	
2949	0	38060	
2950	0	36688	
2951	0	35396	
2952	0	34460	
2953	0	33944	
2954	0	33972	
2955	0	34424	
2956	0	35212	
2957	0	36044	
2958	0	36204	
2959	0	35976	
2960	0	35720	
2961	0	35740	
2962	0	36190	
2963	0	37172	
2964	0	38620	
2965	0	40408	
2966	0	42432	
2967	0	44184	
2968	0	44908	
2969	0	44516	
2970	0	43104	
2971	0	41312	
2972	0	39632	
2973	0	38268	
2974	0	37300	
2975	0	36704	
2976	0	36496	
2977	0	36388	
2978	0	35704	
2979	0	34872	
2980	0	34404	
2981	0	34160	
2982	0	34288	
2983	0	34938	
2984	0	35928	
2985	0	37228	
2986	0	38680	
2987	0	39776	
2988	0	39640	
2989	0	38468	
2990	0	36792	
2991	0	35060	
2992	0	33512	
2993	0	32368	
2994	0	31680	
2995	0	31552	
2996	0	31988	
2997	0	32500	
2998	0	32364	
2999	0	31804	
3000	0	31260	
3001	0	30948	
3002	0	31178	
3003	0	31940	
3004	0	33120	
3005	0	34364	
3006	0	35616	
3007	0	36532	
3008	0	36332	
3009	0	35120	
3010	0	33500	
3011	0	31928	
3012	0	30544	
3013	0	29572	
3014	0	29088	
3015	0	29200	
3016	0	29848	
3017	0	30644	
3018	0	30764	
3019	0	30416	
3020	0	30052	
3021	0	29920	
3022	0	30284	
3023	0	31228	
3024	0	32472	
3025	0	33808	
3026	0	35234	
3027	0	36268	
3028	0	36188	
3029	0	35104	
3030	0	33360	
3031	0	31620	
3032	0	30316	
3033	0	29464	
3034	0	29184	
3035	0	29372	
3036	0	29996	
3037	0	30760	
3038	0	30824	
3039	0	30360	
3040	0	30084	
3041	0	30252	
3042	0	30684	
3043	0	31504	
3044	0	32712	
3045	0	34080	
3046	0	35440	
3047	0	36432	
3048	0	36384	
3049	0	35316	
3050	0	33740	
3051	0	32130	
3052	0	30744	
3053	0	29800	
3054	0	29388	
3055	0	29520	
3056	0	30176	
3057	0	31024	
3058	0	31192	
3059	0	30824	
3060	0	30440	
3061	0	30414	
3062	0	30848	
3063	0	31648	
3064	0	32864	
3065	0	34332	
3066	0	35764	
3067	0	36736	
3068	0	36484	
3069	0	35264	
3070	0	33664	
3071	0	32144	
3072	0	30920	
3073	0	29932	
3074	0	29416	
3075	0	29504	
3076	0	30128	
3077	0	30960	
3078	0	31036	
3079	0	30640	
3080	0	30348	
3081	0	30444	
3082	0	30930	
3083	0	31804	
3084	0	33020	
3085	0	34456	
3086	0	35848	
3087	0	36832	
3088	0	36728	
3089	0	35704	
3090	0	34188	
3091	0	32636	
3092	0	31288	
3093	0	30296	
3094	0	29808	
3095	0	29968	
3096	0	30636	
3097	0	31408	
3098	0	31450	
3099	0	31052	
3100	0	30738	
3101	0	30748	
3102	0	31084	
3103	0	31900	
3104	0	33072	
3105	0	34468	
3106	0	35844	
3107	0	36888	
3108	0	36848	
3109	0	35824	
3110	0	34372	
3111	0	32808	
3112	0	31456	
3113	0	30530	
3114	0	30104	
3115	0	30264	
3116	0	30922	
3117	0	31584	
3118	0	31512	
3119	0	31144	
3120	0	30808	
3121	0	30716	
3122	0	31012	
3123	0	31840	
3124	0	33172	
3125	0	34644	
3126	0	36144	
3127	0	37248	
3128	0	37252	
3129	0	36160	
3130	0	34528	
3131	0	32956	
3132	0	31628	
3133	0	30656	
3134	0	30368	
3135	0	30592	
3136	0	31272	
3137	0	32072	
3138	0	32168	
3139	0	31805	
3140	0	31456	
3141	0	31360	
3142	0	31664	
3143	0	32424	
3144	0	33568	
3145	0	34980	
3146	0	36500	
3147	0	37636	
3148	0	37656	
3149	0	36692	
3150	0	35128	
3151	0	33536	
3152	0	32260	
3153	0	31384	
3154	0	30996	
3155	0	31048	
3156	0	31600	
3157	0	32428	
3158	0	32704	
3159	0	32380	
3160	0	32008	
3161	0	31885	
3162	0	32124	
3163	0	32948	
3164	0	34212	
3165	0	35624	
3166	0	37104	
3167	0	38340	
3168	0	38348	
3169	0	37332	
3170	0	35808	
3171	0	34260	
3172	0	32908	
3173	0	31948	
3174	0	31480	
3175	0	31582	
3176	0	32316	
3177	0	33248	
3178	0	33448	
3179	0	33000	
3180	0	32612	
3181	0	32610	
3182	0	33012	
3183	0	33824	
3184	0	34996	
3185	0	36272	
3186	0	37644	
3187	0	38628	
3188	0	38660	
3189	0	37720	
3190	0	36304	
3191	0	34792	
3192	0	33434	
3193	0	32466	
3194	0	32040	
3195	0	32140	
3196	0	32824	
3197	0	33660	
3198	0	33806	
3199	0	33408	
3200	0	33048	
3201	0	32808	
3202	0	33136	
3203	0	33920	
3204	0	34956	
3205	0	36224	
3206	0	37616	
3207	0	38636	
3208	0	38600	
3209	0	37664	
3210	0	36232	
3211	0	34792	
3212	0	33634	
3213	0	32672	
3214	0	32056	
3215	0	31960	
3216	0	32436	
3217	0	33240	
3218	0	33504	
3219	0	33260	
3220	0	32956	
3221	0	32816	
3222	0	32992	
3223	0	33724	
3224	0	34896	
3225	0	36164	
3226	0	37424	
3227	0	38524	
3228	0	38504	
3229	0	37532	
3230	0	36088	
3231	0	34520	
3232	0	33004	
3233	0	31888	
3234	0	31425	
3235	0	31496	
3236	0	32004	
3237	0	32792	
3238	0	32992	
3239	0	32672	
3240	0	32240	
3241	0	31992	
3242	0	32148	
3243	0	32792	
3244	0	33896	
3245	0	35220	
3246	0	36624	
3247	0	37640	
3248	0	37480	
3249	0	36262	
3250	0	34664	
3251	0	33052	
3252	0	31652	
3253	0	30644	
3254	0	30216	
3255	0	30280	
3256	0	30732	
3257	0	31476	
3258	0	31704	
3259	0	31352	
3260	0	30956	
3261	0	30684	
3262	0	30864	
3263	0	31632	
3264	0	32716	
3265	0	33944	
3266	0	35224	
3267	0	36312	
3268	0	36280	
3269	0	35116	
3270	0	33520	
3271	0	31952	
3272	0	30648	
3273	0	29752	
3274	0	29368	
3275	0	29340	
3276	0	29752	
3277	0	30528	
3278	0	30700	
3279	0	30280	
3280	0	29908	
3281	0	29800	
3282	0	29986	
3283	0	30760	
3284	0	31928	
3285	0	33148	
3286	0	34456	
3287	0	35698	
3288	0	35904	
3289	0	34944	
3290	0	33322	
3291	0	31680	
3292	0	30256	
3293	0	29300	
3294	0	28816	
3295	0	28772	
3296	0	29196	
3297	0	29976	
3298	0	30264	
3299	0	29992	
3300	0	29656	
3301	0	29564	
3302	0	29844	
3303	0	30592	
3304	0	31664	
3305	0	32900	
3306	0	34360	
3307	0	35608	
3308	0	35780	
3309	0	34896	
3310	0	33372	
3311	0	31820	
3312	0	30508	
3313	0	29504	
3314	0	29002	
3315	0	29044	
3316	0	29568	
3317	0	30284	
3318	0	30472	
3319	0	30136	
3320	0	29800	
3321	0	29736	
3322	0	30154	
3323	0	30936	
3324	0	32004	
3325	0	33248	
3326	0	34656	
3327	0	35860	
3328	0	36068	
3329	0	35216	
3330	0	33660	
3331	0	31932	
3332	0	30548	
3333	0	29556	
3334	0	29136	
3335	0	29080	
3336	0	29600	
3337	0	30568	
3338	0	30952	
3339	0	30808	
3340	0	30460	
3341	0	30192	
3342	0	30306	
3343	0	31076	
3344	0	32252	
3345	0	33584	
3346	0	34956	
3347	0	36058	
3348	0	36168	
3349	0	35240	
3350	0	33740	
3351	0	32190	
3352	0	30732	
3353	0	29492	
3354	0	28932	
3355	0	28898	
3356	0	29346	
3357	0	30288	
3358	0	30744	
3359	0	30524	
3360	0	30160	
3361	0	30112	
3362	0	30392	
3363	0	31112	
3364	0	32240	
3365	0	33600	
3366	0	35040	
3367	0	36244	
3368	0	36380	
3369	0	35452	
3370	0	34008	
3371	0	32328	
3372	0	30820	
3373	0	29884	
3374	0	29480	
3375	0	29480	
3376	0	29888	
3377	0	30658	
3378	0	30868	
3379	0	30544	
3380	0	30172	
3381	0	30076	
3382	0	30380	
3383	0	31176	
3384	0	32424	
3385	0	33780	
3386	0	35072	
3387	0	36224	
3388	0	36352	
3389	0	35428	
3390	0	33828	
3391	0	32168	
3392	0	30788	
3393	0	29804	
3394	0	29461	
3395	0	29552	
3396	0	30004	
3397	0	30800	
3398	0	31072	
3399	0	30780	
3400	0	30476	
3401	0	30380	
3402	0	30564	
3403	0	31272	
3404	0	32424	
3405	0	33792	
3406	0	35256	
3407	0	36505	
3408	0	36748	
3409	0	35872	
3410	0	34352	
3411	0	32576	
3412	0	31060	
3413	0	29852	
3414	0	29292	
3415	0	29180	
3416	0	29596	
3417	0	30444	
3418	0	30848	
3419	0	30568	
3420	0	30276	
3421	0	30192	
3422	0	30328	
3423	0	31048	
3424	0	32364	
3425	0	33760	
3426	0	35184	
3427	0	36336	
3428	0	36596	
3429	0	35736	
3430	0	34344	
3431	0	32888	
3432	0	31626	
3433	0	30620	
3434	0	30072	
3435	0	30008	
3436	0	30404	
3437	0	31204	
3438	0	31514	
3439	0	31228	
3440	0	30664	
3441	0	30420	
3442	0	30640	
3443	0	31372	
3444	0	32576	
3445	0	33984	
3446	0	35400	
3447	0	36612	
3448	0	36952	
3449	0	36112	
3450	0	34536	
3451	0	32780	
3452	0	31232	
3453	0	30144	
3454	0	29660	
3455	0	29516	
3456	0	29852	
3457	0	30684	
3458	0	31024	
3459	0	30856	
3460	0	30592	
3461	0	30592	
3462	0	30832	
3463	0	31552	
3464	0	32640	
3465	0	33936	
3466	0	35472	
3467	0	36744	
3468	0	36940	
3469	0	35940	
3470	0	34296	
3471	0	32664	
3472	0	31272	
3473	0	30192	
3474	0	29688	
3475	0	29672	
3476	0	30128	
3477	0	30984	
3478	0	31372	
3479	0	31232	
3480	0	30940	
3481	0	30696	
3482	0	30936	
3483	0	31880	
3484	0	33188	
3485	0	34468	
3486	0	35852	
3487	0	37092	
3488	0	37312	
3489	0	36392	
3490	0	34944	
3491	0	33356	
3492	0	31936	
3493	0	30788	
3494	0	30164	
3495	0	30010	
3496	0	30418	
3497	0	31236	
3498	0	31496	
3499	0	31120	
3500	0	30718	
3501	0	30506	
3502	0	30756	
3503	0	31400	
3504	0	32436	
3505	0	33892	
3506	0	35554	
3507	0	36996	
3508	0	37392	
3509	0	36548	
3510	0	34916	
3511	0	33196	
3512	0	31816	
3513	0	30856	
3514	0	30296	
3515	0	30124	
3516	0	30372	
3517	0	31048	
3518	0	31304	
3519	0	30976	
3520	0	30656	
3521	0	30564	
3522	0	30954	
3523	0	31832	
3524	0	32976	
3525	0	34316	
3526	0	35748	
3527	0	37072	
3528	0	37480	
3529	0	36560	
3530	0	35008	
3531	0	33352	
3532	0	31840	
3533	0	30722	
3534	0	30160	
3535	0	30024	
3536	0	30368	
3537	0	31160	
3538	0	31624	
3539	0	31512	
3540	0	31236	
3541	0	31080	
3542	0	31208	
3543	0	31768	
3544	0	32868	
3545	0	34256	
3546	0	35742	
3547	0	37108	
3548	0	37528	
3549	0	36720	
3550	0	35220	
3551	0	33468	
3552	0	31820	
3553	0	30640	
3554	0	30012	
3555	0	29896	
3556	0	30216	
3557	0	31060	
3558	0	31520	
3559	0	31348	
3560	0	31016	
3561	0	30876	
3562	0	31040	
3563	0	31768	
3564	0	32908	
3565	0	34376	
3566	0	35904	
3567	0	37208	
3568	0	37526	
3569	0	36696	
3570	0	35092	
3571	0	33212	
3572	0	31688	
3573	0	30658	
3574	0	30120	
3575	0	30136	
3576	0	30568	
3577	0	31396	
3578	0	31808	
3579	0	31556	
3580	0	31060	
3581	0	30812	
3582	0	30996	
3583	0	31744	
3584	0	32968	
3585	0	34352	
3586	0	35700	
3587	0	36880	
3588	0	37248	
3589	0	36600	
3590	0	35344	
3591	0	33804	
3592	0	32312	
3593	0	31176	
3594	0	30552	
3595	0	30380	
3596	0	30652	
3597	0	31344	
3598	0	31692	
3599	0	31440	
3600	0	30996	
3601	0	30764	
3602	0	30944	
3603	0	31640	
3604	0	32757	
3605	0	34228	
3606	0	35812	
3607	0	37184	
3608	0	37668	
3609	0	36952	
3610	0	35424	
3611	0	33700	
3612	0	32100	
3613	0	30888	
3614	0	30304	
3615	0	30200	
3616	0	30696	
3617	0	31522	
3618	0	31952	
3619	0	31684	
3620	0	31192	
3621	0	30956	
3622	0	31104	
3623	0	31762	
3624	0	32832	
3625	0	34176	
3626	0	35732	
3627	0	37192	
3628	0	37752	
3629	0	37000	
3630	0	35536	
3631	0	33944	
3632	0	32474	
3633	0	31284	
3634	0	30608	
3635	0	30402	
3636	0	30856	
3637	0	31792	
3638	0	32252	
3639	0	32024	
3640	0	31522	
3641	0	31370	
3642	0	31540	
3643	0	32178	
3644	0	33264	
3645	0	34608	
3646	0	36048	
3647	0	37428	
3648	0	37992	
3649	0	37344	
3650	0	36014	
3651	0	34560	
3652	0	33148	
3653	0	31920	
3654	0	31192	
3655	0	31049	
3656	0	31406	
3657	0	32208	
3658	0	32744	
3659	0	32704	
3660	0	32436	
3661	0	32324	
3662	0	32536	
3663	0	33136	
3664	0	34092	
3665	0	35308	
3666	0	36640	
3667	0	37912	
3668	0	38372	
3669	0	37724	
3670	0	36400	
3671	0	34792	
3672	0	33228	
3673	0	31908	
3674	0	31116	
3675	0	30842	
3676	0	31200	
3677	0	32096	
3678	0	32636	
3679	0	32524	
3680	0	32128	
3681	0	31840	
3682	0	31896	
3683	0	32472	
3684	0	33648	
3685	0	34988	
3686	0	36324	
3687	0	37636	
3688	0	38144	
3689	0	37420	
3690	0	35908	
3691	0	34276	
3692	0	32720	
3693	0	31456	
3694	0	30736	
3695	0	30408	
3696	0	30472	
3697	0	30976	
3698	0	31304	
3699	0	31036	
3700	0	30580	
3701	0	30392	
3702	0	30536	
3703	0	31140	
3704	0	32280	
3705	0	33602	
3706	0	34928	
3707	0	36288	
3708	0	36884	
3709	0	36152	
3710	0	34700	
3711	0	33108	
3712	0	31504	
3713	0	30228	
3714	0	29480	
3715	0	29260	
3716	0	29588	
3717	0	30468	
3718	0	31024	
3719	0	30850	
3720	0	30456	
3721	0	30236	
3722	0	30360	
3723	0	30904	
3724	0	31952	
3725	0	33280	
3726	0	34712	
3727	0	36100	
3728	0	36692	
3729	0	36076	
3730	0	34676	
3731	0	33064	
3732	0	31528	
3733	0	30244	
3734	0	29464	
3735	0	29216	
3736	0	29516	
3737	0	30288	
3738	0	30800	
3739	0	30676	
3740	0	30208	
3741	0	29968	
3742	0	30196	
3743	0	30792	
3744	0	31884	
3745	0	33264	
3746	0	34636	
3747	0	36044	
3748	0	36588	
3749	0	35904	
3750	0	34464	
3751	0	32844	
3752	0	31420	
3753	0	30304	
3754	0	29610	
3755	0	29476	
3756	0	29844	
3757	0	30592	
3758	0	31200	
3759	0	31244	
3760	0	30940	
3761	0	30638	
3762	0	30664	
3763	0	31220	
3764	0	32276	
3765	0	33628	
3766	0	34992	
3767	0	36304	
3768	0	36848	
3769	0	36300	
3770	0	35064	
3771	0	33752	
3772	0	32600	
3773	0	31648	
3774	0	31144	
3775	0	31036	
3776	0	31436	
3777	0	32364	
3778	0	33016	
3779	0	32992	
3780	0	32860	
3781	0	33016	
3782	0	33472	
3783	0	34208	
3784	0	35204	
3785	0	36584	
3786	0	38168	
3787	0	39728	
3788	0	40524	
3789	0	40104	
3790	0	38880	
3791	0	37500	
3792	0	36272	
3793	0	35416	
3794	0	35440	
3795	0	36052	
3796	0	36984	
3797	0	38136	
3798	0	38696	
3799	0	38368	
3800	0	37540	
3801	0	36752	
3802	0	36168	
3803	0	35896	
3804	0	36076	
3805	0	36626	
3806	0	37408	
3807	0	38328	
3808	0	38776	
3809	0	38296	
3810	0	36824	
3811	0	34888	
3812	0	33200	
3813	0	31624	
3814	0	30520	
3815	0	30056	
3816	0	30392	
3817	0	31324	
3818	0	31860	
3819	0	31740	
3820	0	31520	
3821	0	31376	
3822	0	31456	
3823	0	31924	
3824	0	32832	
3825	0	33920	
3826	0	35172	
3827	0	36416	
3828	0	36792	
3829	0	36016	
3830	0	34516	
3831	0	32732	
3832	0	31072	
3833	0	29792	
3834	0	29048	
3835	0	28748	
3836	0	28928	
3837	0	29580	
3838	0	30024	
3839	0	29736	
3840	0	29264	
3841	0	29008	
3842	0	29204	
3843	0	29860	
3844	0	30948	
3845	0	32248	
3846	0	33652	
3847	0	34992	
3848	0	35692	
3849	0	35200	
3850	0	33880	
3851	0	32340	
3852	0	30868	
3853	0	29658	
3854	0	29024	
3855	0	28880	
3856	0	29228	
3857	0	30088	
3858	0	30472	
3859	0	30230	
3860	0	29856	
3861	0	29632	
3862	0	29656	
3863	0	30156	
3864	0	31104	
3865	0	32336	
3866	0	33856	
3867	0	35472	
3868	0	36100	
3869	0	35412	
3870	0	33920	
3871	0	32264	
3872	0	30824	
3873	0	29736	
3874	0	29104	
3875	0	28928	
3876	0	29274	
3877	0	30104	
3878	0	30600	
3879	0	30418	
3880	0	30032	
3881	0	29840	
3882	0	29940	
3883	0	30532	
3884	0	31492	
3885	0	32640	
3886	0	34080	
3887	0	35440	
3888	0	35826	
3889	0	35108	
3890	0	33740	
3891	0	32184	
3892	0	30692	
3893	0	29576	
3894	0	29048	
3895	0	29048	
3896	0	29420	
3897	0	30084	
3898	0	30676	
3899	0	30724	
3900	0	30416	
3901	0	30192	
3902	0	30280	
3903	0	30806	
3904	0	31724	
3905	0	32960	
3906	0	34400	
3907	0	35824	
3908	0	36440	
3909	0	35880	
3910	0	34464	
3911	0	32812	
3912	0	31364	
3913	0	30228	
3914	0	29540	
3915	0	29316	
3916	0	29608	
3917	0	30408	
3918	0	30938	
3919	0	30720	
3920	0	30432	
3921	0	30396	
3922	0	30516	
3923	0	31000	
3924	0	31928	
3925	0	33056	
3926	0	34360	
3927	0	35816	
3928	0	36472	
3929	0	35924	
3930	0	34664	
3931	0	33212	
3932	0	31872	
3933	0	30624	
3934	0	29800	
3935	0	29434	
3936	0	29696	
3937	0	30504	
3938	0	31096	
3939	0	31056	
3940	0	30648	
3941	0	30362	
3942	0	30432	
3943	0	30920	
3944	0	31884	
3945	0	33228	
3946	0	34636	
3947	0	35968	
3948	0	36604	
3949	0	36136	
3950	0	34844	
3951	0	33324	
3952	0	31976	
3953	0	30842	
3954	0	30136	
3955	0	29928	
3956	0	30236	
3957	0	31040	
3958	0	31520	
3959	0	31288	
3960	0	30880	
3961	0	30576	
3962	0	30568	
3963	0	31132	
3964	0	32184	
3965	0	33594	
3966	0	35048	
3967	0	36348	
3968	0	36992	
3969	0	36500	
3970	0	35176	
3971	0	33500	
3972	0	31952	
3973	0	30792	
3974	0	30148	
3975	0	29964	
3976	0	30268	
3977	0	31040	
3978	0	31592	
3979	0	31460	
3980	0	31096	
3981	0	30904	
3982	0	31016	
3983	0	31544	
3984	0	32572	
3985	0	33864	
3986	0	35184	
3987	0	36540	
3988	0	37296	
3989	0	36868	
3990	0	35608	
3991	0	34100	
3992	0	32692	
3993	0	31592	
3994	0	30944	
3995	0	30762	
3996	0	31104	
3997	0	32008	
3998	0	32636	
3999	0	32500	
4000	0	32026	
4001	0	31776	
4002	0	31860	
4003	0	32394	
4004	0	33520	
4005	0	34880	
4006	0	36245	
4007	0	37576	
4008	0	38224	
4009	0	37736	
4010	0	36552	
4011	0	35104	
4012	0	33780	
4013	0	32660	
4014	0	31934	
4015	0	31712	
4016	0	32014	
4017	0	32732	
4018	0	33184	
4019	0	33032	
4020	0	32748	
4021	0	32592	
4022	0	32656	
4023	0	33140	
4024	0	34140	
4025	0	35402	
4026	0	36708	
4027	0	37952	
4028	0	38624	
4029	0	38192	
4030	0	36904	
4031	0	35336	
4032	0	33864	
4033	0	32632	
4034	0	31897	
4035	0	31648	
4036	0	31888	
4037	0	32536	
4038	0	32972	
4039	0	32848	
4040	0	32492	
4041	0	32313	
4042	0	32456	
4043	0	33040	
4044	0	34112	
4045	0	35384	
4046	0	36732	
4047	0	38096	
4048	0	38820	
4049	0	38326	
4050	0	37008	
4051	0	35448	
4052	0	33976	
4053	0	32704	
4054	0	31912	
4055	0	31580	
4056	0	31724	
4057	0	32392	
4058	0	32924	
4059	0	32808	
4060	0	32488	
4061	0	32276	
4062	0	32288	
4063	0	32684	
4064	0	33524	
4065	0	34580	
4066	0	35768	
4067	0	37040	
4068	0	37700	
4069	0	37204	
4070	0	35896	
4071	0	34354	
4072	0	32922	
4073	0	31677	
4074	0	30932	
4075	0	30645	
4076	0	30816	
4077	0	31432	
4078	0	31936	
4079	0	31770	
4080	0	31308	
4081	0	30928	
4082	0	30856	
4083	0	31208	
4084	0	32074	
4085	0	33228	
4086	0	34452	
4087	0	35704	
4088	0	36416	
4089	0	36040	
4090	0	34816	
4091	0	33224	
4092	0	31672	
4093	0	30444	
4094	0	29648	
4095	0	29328	
4096	0	29516	
4097	0	30292	
4098	0	30896	
4099	0	30664	
4100	0	30168	
4101	0	29836	
4102	0	29844	
4103	0	30332	
4104	0	31330	
4105	0	32536	
4106	0	33800	
4107	0	35092	
4108	0	35792	
4109	0	35360	
4110	0	34040	
4111	0	32468	
4112	0	31064	
4113	0	29872	
4114	0	29050	
4115	0	28688	
4116	0	28844	
4117	0	29520	
4118	0	30156	
4119	0	30076	
4120	0	29592	
4121	0	29332	
4122	0	29388	
4123	0	29808	
4124	0	30716	
4125	0	31980	
4126	0	33392	
4127	0	34776	
4128	0	35560	
4129	0	35144	
4130	0	33896	
4131	0	32292	
4132	0	30802	
4133	0	29608	
4134	0	28848	
4135	0	28560	
4136	0	28808	
4137	0	29516	
4138	0	30140	
4139	0	30080	
4140	0	29648	
4141	0	29352	
4142	0	29432	
4143	0	29952	
4144	0	30872	
4145	0	32048	
4146	0	33460	
4147	0	34916	
4148	0	35616	
4149	0	35096	
4150	0	33736	
4151	0	32188	
4152	0	30796	
4153	0	29658	
4154	0	28960	
4155	0	28729	
4156	0	28946	
4157	0	29616	
4158	0	30228	
4159	0	30052	
4160	0	29488	
4161	0	29124	
4162	0	29122	
4163	0	29528	
4164	0	30568	
4165	0	32032	
4166	0	33612	
4167	0	35090	
4168	0	35824	
4169	0	35320	
4170	0	34040	
4171	0	32496	
4172	0	31064	
4173	0	29764	
4174	0	28908	
4175	0	28625	
4176	0	28828	
4177	0	29536	
4178	0	30200	
4179	0	30228	
4180	0	29900	
4181	0	29708	
4182	0	29776	
4183	0	30252	
4184	0	31268	
4185	0	32592	
4186	0	34092	
4187	0	35592	
4188	0	36328	
4189	0	35876	
4190	0	34560	
4191	0	32964	
4192	0	31448	
4193	0	30160	
4194	0	29386	
4195	0	29082	
4196	0	29332	
4197	0	29992	
4198	0	30540	
4199	0	30428	
4200	0	30028	
4201	0	29748	
4202	0	29892	
4203	0	30460	
4204	0	31476	
4205	0	32768	
4206	0	34244	
4207	0	35768	
4208	0	36584	
4209	0	36160	
4210	0	34768	
4211	0	33096	
4212	0	31548	
4213	0	30300	
4214	0	29492	
4215	0	29208	
4216	0	29520	
4217	0	30348	
4218	0	31012	
4219	0	30952	
4220	0	30504	
4221	0	30208	
4222	0	30304	
4223	0	30844	
4224	0	31808	
4225	0	33112	
4226	0	34548	
4227	0	35960	
4228	0	36668	
4229	0	36176	
4230	0	34828	
4231	0	33248	
4232	0	31728	
4233	0	30476	
4234	0	29692	
4235	0	29360	
4236	0	29544	
4237	0	30252	
4238	0	30788	
4239	0	30668	
4240	0	30388	
4241	0	30240	
4242	0	30386	
4243	0	30968	
4244	0	31928	
4245	0	33188	
4246	0	34664	
4247	0	36100	
4248	0	36752	
4249	0	36208	
4250	0	34864	
4251	0	33278	
4252	0	31836	
4253	0	30664	
4254	0	29968	
4255	0	29784	
4256	0	30072	
4257	0	30878	
4258	0	31464	
4259	0	31310	
4260	0	30840	
4261	0	30576	
4262	0	30712	
4263	0	31236	
4264	0	32232	
4265	0	33508	
4266	0	34948	
4267	0	36400	
4268	0	37108	
4269	0	36532	
4270	0	35144	
4271	0	33468	
4272	0	31936	
4273	0	30732	
4274	0	30008	
4275	0	29756	
4276	0	29900	
4277	0	30588	
4278	0	31080	
4279	0	30880	
4280	0	30532	
4281	0	30276	
4282	0	30360	
4283	0	31020	
4284	0	32264	
4285	0	33812	
4286	0	35368	
4287	0	36816	
4288	0	37528	
4289	0	36956	
4290	0	35520	
4291	0	33800	
4292	0	32308	
4293	0	31116	
4294	0	30484	
4295	0	30272	
4296	0	30492	
4297	0	31216	
4298	0	31692	
4299	0	31456	
4300	0	30944	
4301	0	30620	
4302	0	30592	
4303	0	31044	
4304	0	32072	
4305	0	33412	
4306	0	34872	
4307	0	36284	
4308	0	36992	
4309	0	36510	
4310	0	35184	
4311	0	33644	
4312	0	32124	
4313	0	30888	
4314	0	30144	
4315	0	29868	
4316	0	30108	
4317	0	30816	
4318	0	31340	
4319	0	31194	
4320	0	30720	
4321	0	30392	
4322	0	30488	
4323	0	31068	
4324	0	32160	
4325	0	33556	
4326	0	35116	
4327	0	36689	
4328	0	37392	
4329	0	36740	
4330	0	35228	
4331	0	33464	
4332	0	32004	
4333	0	30920	
4334	0	30290	
4335	0	30044	
4336	0	30272	
4337	0	30996	
4338	0	31500	
4339	0	31328	
4340	0	30896	
4341	0	30704	
4342	0	30864	
4343	0	31492	
4344	0	32588	
4345	0	33952	
4346	0	35440	
4347	0	36812	
4348	0	37288	
4349	0	36496	
4350	0	34952	
4351	0	33228	
4352	0	31724	
4353	0	30636	
4354	0	30184	
4355	0	30188	
4356	0	30516	
4357	0	31260	
4358	0	31800	
4359	0	31612	
4360	0	31128	
4361	0	30812	
4362	0	30960	
4363	0	31592	
4364	0	32732	
4365	0	34108	
4366	0	35588	
4367	0	37048	
4368	0	37656	
4369	0	37004	
4370	0	35610	
4371	0	33956	
4372	0	32384	
4373	0	31097	
4374	0	30288	
4375	0	30056	
4376	0	30428	
4377	0	31168	
4378	0	31520	
4379	0	31232	
4380	0	30816	
4381	0	30708	
4382	0	31052	
4383	0	31792	
4384	0	32850	
4385	0	34152	
4386	0	35544	
4387	0	36852	
4388	0	37304	
4389	0	36532	
4390	0	35072	
4391	0	33468	
4392	0	32096	
4393	0	31052	
4394	0	30452	
4395	0	30332	
4396	0	30640	
4397	0	31472	
4398	0	31968	
4399	0	31704	
4400	0	31264	
4401	0	31064	
4402	0	31224	
4403	0	31672	
4404	0	32664	
4405	0	34032	
4406	0	35496	
4407	0	36888	
4408	0	37428	
4409	0	36760	
4410	0	35288	
4411	0	33664	
4412	0	32232	
4413	0	31080	
4414	0	30452	
4415	0	30352	
4416	0	30656	
4417	0	31348	
4418	0	31744	
4419	0	31552	
4420	0	31236	
4421	0	31106	
4422	0	31340	
4423	0	31936	
4424	0	32968	
4425	0	34328	
4426	0	35804	
4427	0	37140	
4428	0	37540	
4429	0	36720	
4430	0	35280	
4431	0	33588	
4432	0	31968	
4433	0	30740	
4434	0	30104	
4435	0	30024	
4436	0	30568	
4437	0	31552	
4438	0	32088	
4439	0	31792	
4440	0	31292	
4441	0	31044	
4442	0	31166	
4443	0	31804	
4444	0	32840	
4445	0	34040	
4446	0	35413	
4447	0	36740	
4448	0	37226	
4449	0	36492	
4450	0	35008	
4451	0	33364	
4452	0	31880	
4453	0	30744	
4454	0	30124	
4455	0	30056	
4456	0	30464	
4457	0	31296	
4458	0	31680	
4459	0	31424	
4460	0	30992	
4461	0	30844	
4462	0	31052	
4463	0	31708	
4464	0	32844	
4465	0	34260	
4466	0	35684	
4467	0	37020	
4468	0	37488	
4469	0	36752	
4470	0	35324	
4471	0	33728	
4472	0	32332	
4473	0	31236	
4474	0	30616	
4475	0	30536	
4476	0	31020	
4477	0	31964	
4478	0	32448	
4479	0	32216	
4480	0	31813	
4481	0	31616	
4482	0	31740	
4483	0	32336	
4484	0	33432	
4485	0	34826	
4486	0	36328	
4487	0	37664	
4488	0	38080	
4489	0	37388	
4490	0	35892	
4491	0	34220	
4492	0	32744	
4493	0	31584	
4494	0	30940	
4495	0	30808	
4496	0	31228	
4497	0	32074	
4498	0	32536	
4499	0	32301	
4500	0	31876	
4501	0	31752	
4502	0	32004	
4503	0	32720	
4504	0	33892	
4505	0	35312	
4506	0	36865	
4507	0	38304	
4508	0	38752	
4509	0	38000	
4510	0	36600	
4511	0	35052	
4512	0	33604	
4513	0	32412	
4514	0	31752	
4515	0	31624	
4516	0	32032	
4517	0	32892	
4518	0	33280	
4519	0	33000	
4520	0	32544	
4521	0	32284	
4522	0	32396	
4523	0	33004	
4524	0	34166	
4525	0	35552	
4526	0	36880	
4527	0	38140	
4528	0	38540	
4529	0	37808	
4530	0	36308	
4531	0	34620	
4532	0	33096	
4533	0	31920	
4534	0	31280	
4535	0	31076	
4536	0	31442	
4537	0	32242	
4538	0	32568	
4539	0	32196	
4540	0	31714	
4541	0	31464	
4542	0	31692	
4543	0	32440	
4544	0	33548	
4545	0	34844	
4546	0	36228	
4547	0	37456	
4548	0	37680	
4549	0	36768	
4550	0	35168	
4551	0	33404	
4552	0	31868	
4553	0	30680	
4554	0	30020	
4555	0	29856	
4556	0	30128	
4557	0	30920	
4558	0	31296	
4559	0	31020	
4560	0	30568	
4561	0	30392	
4562	0	30632	
4563	0	31356	
4564	0	32508	
4565	0	33940	
4566	0	35476	
4567	0	36816	
4568	0	37166	
4569	0	36344	
4570	0	34752	
4571	0	33056	
4572	0	31560	
4573	0	30412	
4574	0	29780	
4575	0	29604	
4576	0	29978	
4577	0	30796	
4578	0	31178	
4579	0	30976	
4580	0	30624	
4581	0	30548	
4582	0	30762	
4583	0	31408	
4584	0	32464	
4585	0	33848	
4586	0	35352	
4587	0	36676	
4588	0	37000	
4589	0	36200	
4590	0	34716	
4591	0	33112	
4592	0	31684	
4593	0	30524	
4594	0	29900	
4595	0	29828	
4596	0	30264	
4597	0	31056	
4598	0	31424	
4599	0	31132	
4600	0	30616	
4601	0	30328	
4602	0	30564	
4603	0	31388	
4604	0	32544	
4605	0	33924	
4606	0	35336	
4607	0	36644	
4608	0	37036	
4609	0	36320	
4610	0	34928	
4611	0	33420	
4612	0	32092	
4613	0	31048	
4614	0	30496	
4615	0	30380	
4616	0	30784	
4617	0	31624	
4618	0	31952	
4619	0	31760	
4620	0	31478	
4621	0	31468	
4622	0	31888	
4623	0	32864	
4624	0	34312	
4625	0	36001	
4626	0	37736	
4627	0	39140	
4628	0	39560	
4629	0	39000	
4630	0	37848	
4631	0	36620	
4632	0	35522	
4633	0	34680	
4634	0	34184	
4635	0	34160	
4636	0	34640	
4637	0	35524	
4638	0	35920	
4639	0	35664	
4640	0	35340	
4641	0	35306	
4642	0	35664	
4643	0	36592	
4644	0	38232	
4645	0	40264	
4646	0	42416	
4647	0	44352	
4648	0	45040	
4649	0	44240	
4650	0	42572	
4651	0	40652	
4652	0	38712	
4653	0	36888	
4654	0	35392	
4655	0	34304	
4656	0	33824	
4657	0	33952	
4658	0	33964	
4659	0	33628	
4660	0	33224	
4661	0	32952	
4662	0	32912	
4663	0	33400	
4664	0	34492	
4665	0	35860	
4666	0	37392	
4667	0	38696	
4668	0	38936	
4669	0	38068	
4670	0	36456	
4671	0	34696	
4672	0	32996	
4673	0	31712	
4674	0	30994	
4675	0	30736	
4676	0	30970	
4677	0	31548	
4678	0	31564	
4679	0	30992	
4680	0	30368	
4681	0	30036	
4682	0	30212	
4683	0	30956	
4684	0	32160	
4685	0	33560	
4686	0	35068	
4687	0	36336	
4688	0	36516	
4689	0	35578	
4690	0	33992	
4691	0	32248	
4692	0	30700	
4693	0	29492	
4694	0	28900	
4695	0	28896	
4696	0	29448	
4697	0	30404	
4698	0	30752	
4699	0	30436	
4700	0	30006	
4701	0	29772	
4702	0	30016	
4703	0	30757	
4704	0	31932	
4705	0	33376	
4706	0	34936	
4707	0	36204	
4708	0	36396	
4709	0	35464	
4710	0	33868	
4711	0	32208	
4712	0	30764	
4713	0	29760	
4714	0	29232	
4715	0	29192	
4716	0	29700	
4717	0	30532	
4718	0	30714	
4719	0	30312	
4720	0	29864	
4721	0	29812	
4722	0	30232	
4723	0	31072	
4724	0	32248	
4725	0	33660	
4726	0	35172	
4727	0	36400	
4728	0	36512	
4729	0	35468	
4730	0	33852	
4731	0	32256	
4732	0	30860	
4733	0	29716	
4734	0	29092	
4735	0	29096	
4736	0	29680	
4737	0	30572	
4738	0	30776	
4739	0	30352	
4740	0	29936	
4741	0	29852	
4742	0	30152	
4743	0	30964	
4744	0	32184	
4745	0	33680	
4746	0	35308	
4747	0	36608	
4748	0	36764	
4749	0	35724	
4750	0	34096	
4751	0	32424	
4752	0	30988	
4753	0	29932	
4754	0	29444	
4755	0	29456	
4756	0	29986	
4757	0	30936	
4758	0	31238	
4759	0	30836	
4760	0	30412	
4761	0	30328	
4762	0	30600	
4763	0	31300	
4764	0	32516	
4765	0	33988	
4766	0	35580	
4767	0	36816	
4768	0	36928	
4769	0	35928	
4770	0	34296	
4771	0	32584	
4772	0	31080	
4773	0	30000	
4774	0	29504	
4775	0	29553	
4776	0	30096	
4777	0	30862	
4778	0	31098	
4779	0	30784	
4780	0	30512	
4781	0	30416	
4782	0	30723	
4783	0	31596	
4784	0	32920	
4785	0	34440	
4786	0	35996	
4787	0	37224	
4788	0	37292	
4789	0	36272	
4790	0	34644	
4791	0	32888	
4792	0	31356	
4793	0	30284	
4794	0	29728	
4795	0	29686	
4796	0	30176	
4797	0	31048	
4798	0	31364	
4799	0	31096	
4800	0	30724	
4801	0	30552	
4802	0	30804	
4803	0	31652	
4804	0	32944	
4805	0	34536	
4806	0	36252	
4807	0	37488	
4808	0	37548	
4809	0	36568	
4810	0	35056	
4811	0	33400	
4812	0	31860	
4813	0	30772	
4814	0	30256	
4815	0	30304	
4816	0	30904	
4817	0	31794	
4818	0	32008	
4819	0	31652	
4820	0	31240	
4821	0	31104	
4822	0	31420	
4823	0	32266	
4824	0	33516	
4825	0	35006	
4826	0	36596	
4827	0	37848	
4828	0	37892	
4829	0	36824	
4830	0	35196	
4831	0	33516	
4832	0	32032	
4833	0	30980	
4834	0	30524	
4835	0	30642	
4836	0	31252	
4837	0	32108	
4838	0	32268	
4839	0	31888	
4840	0	31472	
4841	0	31380	
4842	0	31860	
4843	0	32836	
4844	0	34048	
4845	0	35528	
4846	0	37160	
4847	0	38396	
4848	0	38424	
4849	0	37336	
4850	0	35728	
4851	0	34124	
4852	0	32712	
4853	0	31704	
4854	0	31248	
4855	0	31216	
4856	0	31832	
4857	0	32736	
4858	0	32948	
4859	0	32608	
4860	0	32236	
4861	0	32168	
4862	0	32612	
4863	0	33466	
4864	0	34768	
4865	0	36248	
4866	0	37788	
4867	0	38940	
4868	0	38904	
4869	0	37832	
4870	0	36208	
4871	0	34512	
4872	0	33040	
4873	0	31944	
4874	0	31464	
4875	0	31520	
4876	0	32072	
4877	0	32920	
4878	0	33176	
4879	0	32906	
4880	0	32610	
4881	0	32592	
4882	0	32980	
4883	0	33876	
4884	0	35124	
4885	0	36556	
4886	0	38088	
4887	0	39284	
4888	0	39264	
4889	0	38140	
4890	0	36548	
4891	0	34888	
4892	0	33364	
4893	0	32248	
4894	0	31740	
4895	0	31784	
4896	0	32356	
4897	0	33144	
4898	0	33180	
4899	0	32684	
4900	0	32280	
4901	0	32228	
4902	0	32628	
4903	0	33516	
4904	0	34812	
4905	0	36356	
4906	0	37908	
4907	0	39052	
4908	0	38968	
4909	0	37752	
4910	0	36016	
4911	0	34276	
4912	0	32764	
4913	0	31608	
4914	0	31028	
4915	0	31084	
4916	0	31660	
4917	0	32460	
4918	0	32580	
4919	0	32128	
4920	0	31692	
4921	0	31528	
4922	0	31756	
4923	0	32608	
4924	0	33800	
4925	0	35160	
4926	0	36696	
4927	0	37824	
4928	0	37722	
4929	0	36460	
4930	0	34632	
4931	0	32820	
4932	0	31312	
4933	0	30256	
4934	0	29792	
4935	0	29820	
4936	0	30436	
4937	0	31240	
4938	0	31258	
4939	0	30744	
4940	0	30272	
4941	0	30112	
4942	0	30436	
4943	0	31344	
4944	0	32640	
4945	0	34148	
4946	0	35748	
4947	0	36876	
4948	0	36728	
4949	0	35520	
4950	0	33812	
4951	0	32108	
4952	0	30568	
4953	0	29448	
4954	0	28976	
4955	0	29056	
4956	0	29664	
4957	0	30448	
4958	0	30540	
4959	0	30132	
4960	0	29722	
4961	0	29616	
4962	0	29952	
4963	0	30896	
4964	0	32260	
4965	0	33760	
4966	0	35312	
4967	0	36392	
4968	0	36200	
4969	0	34856	
4970	0	33112	
4971	0	31428	
4972	0	29964	
4973	0	28956	
4974	0	28548	
4975	0	28708	
4976	0	29328	
4977	0	30072	
4978	0	30160	
4979	0	29708	
4980	0	29378	
4981	0	29332	
4982	0	29724	
4983	0	30648	
4984	0	31900	
4985	0	33332	
4986	0	34920	
4987	0	36085	
4988	0	36048	
4989	0	34906	
4990	0	33224	
4991	0	31492	
4992	0	30006	
4993	0	28994	
4994	0	28552	
4995	0	28732	
4996	0	29444	
4997	0	30252	
4998	0	30340	
4999	0	29904	
5000	0	29472	
5001	0	29348	
5002	0	29820	
5003	0	30820	
5004	0	32180	
5005	0	33712	
5006	0	35300	
5007	0	36378	
5008	0	36300	
5009	0	35184	
5010	0	33480	
5011	0	31740	
5012	0	30241	
5013	0	29224	
5014	0	28784	
5015	0	28872	
5016	0	29468	
5017	0	30276	
5018	0	30392	
5019	0	29972	
5020	0	29601	
5021	0	29488	
5022	0	29832	
5023	0	30680	
5024	0	31938	
5025	0	33512	
5026	0	35188	
5027	0	36456	
5028	0	36452	
5029	0	35260	
5030	0	33524	
5031	0	31816	
5032	0	30416	
5033	0	29412	
5034	0	28938	
5035	0	29036	
5036	0	29652	
5037	0	30538	
5038	0	30680	
5039	0	30284	
5040	0	29868	
5041	0	29804	
5042	0	30160	
5043	0	31034	
5044	0	32388	
5045	0	33984	
5046	0	35592	
5047	0	36752	
5048	0	36680	
5049	0	35412	
5050	0	33592	
5051	0	31872	
5052	0	30480	
5053	0	29528	
5054	0	29144	
5055	0	29260	
5056	0	29900	
5057	0	30744	
5058	0	30876	
5059	0	30440	
5060	0	30048	
5061	0	29936	
5062	0	30324	
5063	0	31234	
5064	0	32584	
5065	0	34120	
5066	0	35696	
5067	0	36864	
5068	0	36824	
5069	0	35634	
5070	0	33880	
5071	0	32202	
5072	0	30784	
5073	0	29724	
5074	0	29118	
5075	0	29188	
5076	0	29880	
5077	0	30776	
5078	0	30968	
5079	0	30644	
5080	0	30280	
5081	0	30068	
5082	0	30412	
5083	0	31290	
5084	0	32668	
5085	0	34240	
5086	0	35800	
5087	0	37032	
5088	0	37028	
5089	0	35892	
5090	0	34176	
5091	0	32428	
5092	0	30920	
5093	0	29888	
5094	0	29412	
5095	0	29480	
5096	0	30076	
5097	0	30944	
5098	0	31154	
5099	0	30804	
5100	0	30420	
5101	0	30240	
5102	0	30604	
5103	0	31528	
5104	0	32832	
5105	0	34376	
5106	0	35916	
5107	0	37056	
5108	0	37016	
5109	0	35932	
5110	0	34276	
5111	0	32580	
5112	0	31144	
5113	0	30088	
5114	0	29520	
5115	0	29518	
5116	0	30080	
5117	0	30892	
5118	0	31008	
5119	0	30594	
5120	0	30264	
5121	0	30260	
5122	0	30736	
5123	0	31692	
5124	0	32976	
5125	0	34436	
5126	0	36008	
5127	0	37192	
5128	0	37120	
5129	0	36014	
5130	0	34338	
5131	0	32664	
5132	0	31296	
5133	0	30248	
5134	0	29696	
5135	0	29741	
5136	0	30400	
5137	0	31160	
5138	0	31268	
5139	0	30920	
5140	0	30612	
5141	0	30488	
5142	0	30724	
5143	0	31544	
5144	0	32816	
5145	0	34396	
5146	0	36016	
5147	0	37300	
5148	0	37344	
5149	0	36228	
5150	0	34440	
5151	0	32612	
5152	0	31072	
5153	0	29964	
5154	0	29480	
5155	0	29640	
5156	0	30264	
5157	0	31144	
5158	0	31352	
5159	0	30982	
5160	0	30568	
5161	0	30424	
5162	0	30748	
5163	0	31544	
5164	0	32788	
5165	0	34380	
5166	0	36024	
5167	0	37320	
5168	0	37410	
5169	0	36328	
5170	0	34608	
5171	0	32836	
5172	0	31340	
5173	0	30252	
5174	0	29728	
5175	0	29724	
5176	0	30280	
5177	0	31176	
5178	0	31416	
5179	0	31000	
5180	0	30500	
5181	0	30412	
5182	0	30852	
5183	0	31708	
5184	0	32904	
5185	0	34384	
5186	0	36028	
5187	0	37360	
5188	0	37496	
5189	0	36440	
5190	0	34732	
5191	0	32876	
5192	0	31412	
5193	0	30309	
5194	0	29752	
5195	0	29728	
5196	0	30300	
5197	0	31180	
5198	0	31418	
5199	0	31016	
5200	0	30556	
5201	0	30512	
5202	0	30892	
5203	0	31744	
5204	0	33000	
5205	0	34464	
5206	0	36048	
5207	0	37240	
5208	0	37264	
5209	0	36268	
5210	0	34572	
5211	0	32896	
5212	0	31488	
5213	0	30380	
5214	0	29800	
5215	0	29724	
5216	0	30272	
5217	0	31129	
5218	0	31336	
5219	0	30962	
5220	0	30552	
5221	0	30416	
5222	0	30714	
5223	0	31568	
5224	0	32848	
5225	0	34360	
5226	0	35964	
5227	0	37220	
5228	0	37288	
5229	0	36236	
5230	0	34680	
5231	0	33048	
5232	0	31528	
5233	0	30416	
5234	0	29852	
5235	0	29868	
5236	0	30424	
5237	0	31188	
5238	0	31336	
5239	0	30972	
5240	0	30552	
5241	0	30444	
5242	0	30808	
5243	0	31664	
5244	0	32904	
5245	0	34488	
5246	0	36144	
5247	0	37440	
5248	0	37464	
5249	0	36400	
5250	0	34768	
5251	0	33108	
5252	0	31576	
5253	0	30384	
5254	0	29836	
5255	0	29888	
5256	0	30448	
5257	0	31308	
5258	0	31540	
5259	0	31176	
5260	0	30760	
5261	0	30616	
5262	0	30912	
5263	0	31696	
5264	0	33000	
5265	0	34528	
5266	0	36184	
5267	0	37540	
5268	0	37740	
5269	0	36724	
5270	0	35000	
5271	0	33136	
5272	0	31566	
5273	0	30400	
5274	0	29848	
5275	0	29924	
5276	0	30540	
5277	0	31436	
5278	0	31704	
5279	0	31348	
5280	0	30937	
5281	0	30808	
5282	0	31120	
5283	0	31888	
5284	0	33040	
5285	0	34444	
5286	0	36000	
5287	0	37404	
5288	0	37640	
5289	0	36624	
5290	0	34964	
5291	0	33256	
5292	0	31752	
5293	0	30612	
5294	0	30012	
5295	0	29964	
5296	0	30500	
5297	0	31412	
5298	0	31676	
5299	0	31352	
5300	0	30912	
5301	0	30664	
5302	0	30996	
5303	0	31888	
5304	0	33180	
5305	0	34672	
5306	0	36280	
5307	0	37668	
5308	0	37812	
5309	0	36804	
5310	0	35181	
5311	0	33444	
5312	0	31916	
5313	0	30772	
5314	0	30200	
5315	0	30180	
5316	0	30652	
5317	0	31464	
5318	0	31764	
5319	0	31424	
5320	0	30968	
5321	0	30744	
5322	0	31004	
5323	0	31872	
5324	0	33136	
5325	0	34576	
5326	0	36160	
5327	0	37460	
5328	0	37640	
5329	0	36692	
5330	0	35072	
5331	0	33352	
5332	0	31840	
5333	0	30748	
5334	0	30208	
5335	0	30224	
5336	0	30748	
5337	0	31628	
5338	0	31916	
5339	0	31560	
5340	0	31196	
5341	0	31116	
5342	0	31396	
5343	0	32224	
5344	0	33530	
5345	0	35016	
5346	0	36508	
5347	0	37832	
5348	0	38108	
5349	0	37196	
5350	0	35592	
5351	0	33836	
5352	0	32296	
5353	0	31132	
5354	0	30473	
5355	0	30388	
5356	0	30880	
5357	0	31712	
5358	0	32052	
5359	0	31812	
5360	0	31440	
5361	0	31248	
5362	0	31560	
5363	0	32392	
5364	0	33616	
5365	0	35084	
5366	0	36684	
5367	0	38048	
5368	0	38348	
5369	0	37452	
5370	0	35860	
5371	0	34136	
5372	0	32648	
5373	0	31568	
5374	0	30968	
5375	0	30845	
5376	0	31354	
5377	0	32342	
5378	0	32712	
5379	0	32372	
5380	0	32036	
5381	0	31976	
5382	0	32288	
5383	0	32992	
5384	0	34165	
5385	0	35556	
5386	0	37064	
5387	0	38484	
5388	0	38856	
5389	0	37952	
5390	0	36384	
5391	0	34656	
5392	0	33032	
5393	0	31732	
5394	0	31040	
5395	0	30876	
5396	0	31380	
5397	0	32376	
5398	0	32770	
5399	0	32488	
5400	0	32036	
5401	0	31776	
5402	0	31920	
5403	0	32624	
5404	0	33792	
5405	0	35228	
5406	0	36716	
5407	0	38004	
5408	0	38332	
5409	0	37412	
5410	0	35808	
5411	0	34112	
5412	0	32580	
5413	0	31340	
5414	0	30528	
5415	0	30280	
5416	0	30664	
5417	0	31484	
5418	0	31720	
5419	0	31360	
5420	0	30876	
5421	0	30642	
5422	0	30816	
5423	0	31436	
5424	0	32644	
5425	0	34096	
5426	0	35560	
5427	0	36888	
5428	0	37269	
5429	0	36400	
5430	0	34752	
5431	0	33016	
5432	0	31516	
5433	0	30340	
5434	0	29696	
5435	0	29589	
5436	0	30008	
5437	0	30868	
5438	0	31324	
5439	0	31034	
5440	0	30560	
5441	0	30372	
5442	0	30592	
5443	0	31356	
5444	0	32656	
5445	0	34224	
5446	0	35856	
5447	0	37264	
5448	0	37632	
5449	0	36776	
5450	0	35180	
5451	0	33488	
5452	0	31900	
5453	0	30504	
5454	0	29684	
5455	0	29364	
5456	0	29760	
5457	0	30692	
5458	0	31052	
5459	0	30656	
5460	0	30152	
5461	0	30018	
5462	0	30340	
5463	0	31152	
5464	0	32404	
5465	0	33888	
5466	0	35469	
5467	0	36944	
5468	0	37256	
5469	0	36384	
5470	0	34838	
5471	0	33040	
5472	0	31436	
5473	0	30304	
5474	0	29720	
5475	0	29528	
5476	0	29944	
5477	0	30816	
5478	0	31224	
5479	0	30956	
5480	0	30536	
5481	0	30424	
5482	0	30764	
5483	0	31544	
5484	0	32772	
5485	0	34280	
5486	0	35912	
5487	0	37400	
5488	0	37944	
5489	0	37412	
5490	0	36154	
5491	0	34728	
5492	0	33448	
5493	0	32424	
5494	0	31916	
5495	0	32096	
5496	0	32884	
5497	0	34060	
5498	0	34792	
5499	0	34808	
5500	0	34668	
5501	0	34668	
5502	0	35056	
5503	0	35832	
5504	0	37004	
5505	0	38458	
5506	0	39872	
5507	0	41236	
5508	0	41688	
5509	0	40956	
5510	0	39680	
5511	0	38608	
5512	0	37912	
5513	0	37544	
5514	0	37616	
5515	0	37896	
5516	0	38296	
5517	0	38848	
5518	0	38756	
5519	0	37900	
5520	0	36832	
5521	0	35776	
5522	0	34976	
5523	0	34834	
5524	0	35348	
5525	0	36490	
5526	0	37888	
5527	0	39164	
5528	0	39364	
5529	0	38192	
5530	0	36368	
5531	0	34488	
5532	0	33040	
5533	0	31936	
5534	0	31488	
5535	0	31524	
5536	0	31988	
5537	0	32836	
5538	0	33024	
5539	0	32444	
5540	0	31744	
5541	0	31248	
5542	0	31248	
5543	0	31788	
5544	0	32824	
5545	0	33984	
5546	0	35272	
5547	0	36448	
5548	0	36680	
5549	0	35688	
5550	0	34016	
5551	0	32248	
5552	0	30740	
5553	0	29612	
5554	0	28920	
5555	0	28808	
5556	0	29268	
5557	0	30116	
5558	0	30412	
5559	0	30010	
5560	0	29504	
5561	0	29360	
5562	0	29664	
5563	0	30464	
5564	0	31665	
5565	0	33148	
5566	0	34730	
5567	0	36120	
5568	0	36488	
5569	0	35656	
5570	0	34044	
5571	0	32228	
5572	0	30636	
5573	0	29472	
5574	0	28944	
5575	0	28904	
5576	0	29400	
5577	0	30308	
5578	0	30636	
5579	0	30292	
5580	0	29872	
5581	0	29700	
5582	0	29976	
5583	0	30840	
5584	0	32112	
5585	0	33604	
5586	0	35100	
5587	0	36348	
5588	0	36536	
5589	0	35568	
5590	0	33888	
5591	0	32184	
5592	0	30796	
5593	0	29770	
5594	0	29140	
5595	0	29008	
5596	0	29420	
5597	0	30280	
5598	0	30520	
5599	0	30232	
5600	0	29944	
5601	0	29924	
5602	0	30112	
5603	0	30872	
5604	0	32100	
5605	0	33508	
5606	0	35100	
5607	0	36504	
5608	0	36680	
5609	0	35722	
5610	0	34140	
5611	0	32448	
5612	0	30944	
5613	0	29728	
5614	0	29172	
5615	0	29232	
5616	0	29800	
5617	0	30658	
5618	0	30964	
5619	0	30688	
5620	0	30288	
5621	0	30164	
5622	0	30496	
5623	0	31312	
5624	0	32568	
5625	0	34048	
5626	0	35680	
5627	0	36972	
5628	0	37104	
5629	0	36064	
5630	0	34420	
5631	0	32724	
5632	0	31116	
5633	0	30020	
5634	0	29544	
5635	0	29584	
5636	0	30128	
5637	0	31036	
5638	0	31300	
5639	0	30880	
5640	0	30444	
5641	0	30300	
5642	0	30568	
5643	0	31356	
5644	0	32560	
5645	0	34072	
5646	0	35776	
5647	0	37116	
5648	0	37232	
5649	0	36212	
5650	0	34584	
5651	0	32912	
5652	0	31464	
5653	0	30368	
5654	0	29804	
5655	0	29740	
5656	0	30292	
5657	0	31140	
5658	0	31320	
5659	0	31008	
5660	0	30540	
5661	0	30380	
5662	0	30696	
5663	0	31620	
5664	0	32992	
5665	0	34524	
5666	0	36076	
5667	0	37392	
5668	0	37640	
5669	0	36700	
5670	0	35052	
5671	0	33304	
5672	0	31764	
5673	0	30600	
5674	0	30060	
5675	0	30136	
5676	0	30752	
5677	0	31640	
5678	0	31916	
5679	0	31648	
5680	0	31168	
5681	0	30984	
5682	0	31256	
5683	0	32080	
5684	0	33292	
5685	0	34728	
5686	0	36264	
5687	0	37620	
5688	0	37812	
5689	0	36808	
5690	0	35128	
5691	0	33416	
5692	0	31968	
5693	0	30948	
5694	0	30484	
5695	0	30540	
5696	0	31064	
5697	0	31992	
5698	0	32176	
5699	0	31730	
5700	0	31248	
5701	0	31100	
5702	0	31456	
5703	0	32400	
5704	0	33764	
5705	0	35308	
5706	0	36872	
5707	0	38148	
5708	0	38298	
5709	0	37396	
5710	0	35736	
5711	0	33960	
5712	0	32452	
5713	0	31352	
5714	0	30884	
5715	0	30980	
5716	0	31618	
5717	0	32512	
5718	0	32796	
5719	0	32516	
5720	0	32096	
5721	0	31936	
5722	0	32224	
5723	0	33128	
5724	0	34352	
5725	0	35796	
5726	0	37432	
5727	0	38676	
5728	0	38708	
5729	0	37672	
5730	0	36040	
5731	0	34490	
5732	0	33116	
5733	0	32080	
5734	0	31508	
5735	0	31448	
5736	0	32036	
5737	0	32984	
5738	0	33244	
5739	0	32880	
5740	0	32476	
5741	0	32372	
5742	0	32708	
5743	0	33576	
5744	0	34856	
5745	0	36360	
5746	0	38024	
5747	0	39372	
5748	0	39424	
5749	0	38360	
5750	0	36744	
5751	0	35000	
5752	0	33498	
5753	0	32288	
5754	0	31744	
5755	0	31856	
5756	0	32456	
5757	0	33300	
5758	0	33450	
5759	0	32980	
5760	0	32492	
5761	0	32344	
5762	0	32732	
5763	0	33672	
5764	0	34968	
5765	0	36384	
5766	0	37944	
5767	0	39220	
5768	0	39300	
5769	0	38276	
5770	0	36528	
5771	0	34672	
5772	0	33168	
5773	0	32078	
5774	0	31496	
5775	0	31432	
5776	0	32008	
5777	0	32912	
5778	0	33016	
5779	0	32536	
5780	0	32096	
5781	0	31966	
5782	0	32272	
5783	0	32996	
5784	0	34244	
5785	0	35748	
5786	0	37344	
5787	0	38504	
5788	0	38400	
5789	0	37312	
5790	0	35568	
5791	0	33744	
5792	0	32092	
5793	0	30956	
5794	0	30392	
5795	0	30308	
5796	0	30836	
5797	0	31588	
5798	0	31664	
5799	0	31252	
5800	0	30864	
5801	0	30696	
5802	0	30912	
5803	0	31682	
5804	0	32976	
5805	0	34488	
5806	0	36004	
5807	0	37232	
5808	0	37212	
5809	0	36060	
5810	0	34300	
5811	0	32376	
5812	0	30768	
5813	0	29668	
5814	0	29128	
5815	0	29096	
5816	0	29648	
5817	0	30604	
5818	0	30888	
5819	0	30468	
5820	0	29964	
5821	0	29736	
5822	0	29980	
5823	0	30834	
5824	0	32116	
5825	0	33740	
5826	0	35380	
5827	0	36524	
5828	0	36397	
5829	0	35162	
5830	0	33378	
5831	0	31504	
5832	0	29916	
5833	0	28832	
5834	0	28384	
5835	0	28588	
5836	0	29276	
5837	0	30144	
5838	0	30258	
5839	0	29832	
5840	0	29376	
5841	0	29272	
5842	0	29616	
5843	0	30460	
5844	0	31784	
5845	0	33338	
5846	0	34984	
5847	0	36204	
5848	0	36184	
5849	0	34992	
5850	0	33168	
5851	0	31340	
5852	0	29872	
5853	0	28836	
5854	0	28380	
5855	0	28536	
5856	0	29216	
5857	0	30088	
5858	0	30208	
5859	0	29794	
5860	0	29344	
5861	0	29244	
5862	0	29624	
5863	0	30496	
5864	0	31832	
5865	0	33480	
5866	0	35284	
5867	0	36540	
5868	0	36492	
5869	0	35324	
5870	0	33632	
5871	0	31832	
5872	0	30208	
5873	0	29040	
5874	0	28464	
5875	0	28456	
5876	0	29076	
5877	0	30000	
5878	0	30264	
5879	0	29936	
5880	0	29472	
5881	0	29356	
5882	0	29792	
5883	0	30712	
5884	0	32056	
5885	0	33577	
5886	0	35168	
5887	0	36416	
5888	0	36368	
5889	0	35040	
5890	0	33240	
5891	0	31620	
5892	0	30252	
5893	0	29320	
5894	0	28868	
5895	0	28852	
5896	0	29428	
5897	0	30304	
5898	0	30480	
5899	0	30144	
5900	0	29716	
5901	0	29572	
5902	0	29956	
5903	0	30984	
5904	0	32420	
5905	0	34064	
5906	0	35746	
5907	0	36992	
5908	0	36860	
5909	0	35508	
5910	0	33608	
5911	0	31720	
5912	0	30236	
5913	0	29308	
5914	0	28888	
5915	0	29016	
5916	0	29704	
5917	0	30652	
5918	0	30772	
5919	0	30272	
5920	0	29800	
5921	0	29688	
5922	0	30124	
5923	0	31116	
5924	0	32508	
5925	0	34120	
5926	0	35764	
5927	0	36944	
5928	0	36792	
5929	0	35496	
5930	0	33708	
5931	0	31980	
5932	0	30548	
5933	0	29528	
5934	0	29052	
5935	0	29144	
5936	0	29808	
5937	0	30624	
5938	0	30732	
5939	0	30384	
5940	0	30012	
5941	0	30012	
5942	0	30492	
5943	0	31416	
5944	0	32788	
5945	0	34352	
5946	0	35980	
5947	0	37120	
5948	0	36952	
5949	0	35680	
5950	0	33880	
5951	0	32056	
5952	0	30624	
5953	0	29688	
5954	0	29297	
5955	0	29496	
5956	0	30196	
5957	0	31020	
5958	0	31116	
5959	0	30736	
5960	0	30328	
5961	0	30216	
5962	0	30608	
5963	0	31552	
5964	0	32924	
5965	0	34544	
5966	0	36228	
5967	0	37400	
5968	0	37196	
5969	0	35936	
5970	0	34224	
5971	0	32424	
5972	0	30932	
5973	0	29974	
5974	0	29516	
5975	0	29548	
5976	0	30256	
5977	0	31176	
5978	0	31204	
5979	0	30712	
5980	0	30352	
5981	0	30372	
5982	0	30804	
5983	0	31712	
5984	0	33044	
5985	0	34688	
5986	0	36360	
5987	0	37424	
5988	0	37178	
5989	0	35832	
5990	0	34040	
5991	0	32320	
5992	0	30876	
5993	0	29840	
5994	0	29400	
5995	0	29628	
5996	0	30532	
5997	0	31428	
5998	0	31420	
5999	0	30928	
6000	0	30529	
6001	0	30424	
6002	0	30814	
6003	0	31792	
6004	0	33168	
6005	0	34756	
6006	0	36448	
6007	0	37572	
6008	0	37344	
6009	0	35930	
6010	0	34104	
6011	0	32376	
6012	0	30914	
6013	0	29996	
6014	0	29620	
6015	0	29728	
6016	0	30358	
6017	0	31216	
6018	0	31340	
6019	0	30920	
6020	0	30484	
6021	0	30368	
6022	0	30886	
6023	0	31956	
6024	0	33314	
6025	0	34856	
6026	0	36456	
6027	0	37516	
6028	0	37288	
6029	0	35952	
6030	0	34144	
6031	0	32384	
6032	0	30920	
6033	0	29956	
6034	0	29594	
6035	0	29796	
6036	0	30554	
6037	0	31364	
6038	0	31392	
6039	0	30916	
6040	0	30552	
6041	0	30516	
6042	0	30964	
6043	0	31916	
6044	0	33328	
6045	0	34932	
6046	0	36544	
6047	0	37568	
6048	0	37280	
6049	0	35912	
6050	0	34112	
6051	0	32380	
6052	0	30932	
6053	0	30040	
6054	0	29628	
6055	0	29760	
6056	0	30498	
6057	0	31332	
6058	0	31336	
6059	0	30828	
6060	0	30396	
6061	0	30396	
6062	0	30904	
6063	0	32008	
6064	0	33408	
6065	0	34924	
6066	0	36560	
6067	0	37700	
6068	0	37440	
6069	0	36032	
6070	0	34232	
6071	0	32500	
6072	0	31008	
6073	0	29984	
6074	0	29588	
6075	0	29824	
6076	0	30628	
6077	0	31456	
6078	0	31464	
6079	0	30940	
6080	0	30504	
6081	0	30464	
6082	0	30962	
6083	0	32016	
6084	0	33424	
6085	0	34980	
6086	0	36572	
6087	0	37584	
6088	0	37352	
6089	0	35992	
6090	0	34172	
6091	0	32444	
6092	0	31028	
6093	0	30060	
6094	0	29616	
6095	0	29760	
6096	0	30496	
6097	0	31268	
6098	0	31216	
6099	0	30736	
6100	0	30332	
6101	0	30404	
6102	0	30880	
6103	0	31952	
6104	0	33460	
6105	0	35096	
6106	0	36672	
6107	0	37700	
6108	0	37296	
6109	0	35832	
6110	0	33940	
6111	0	32192	
6112	0	30820	
6113	0	29916	
6114	0	29556	
6115	0	29780	
6116	0	30584	
6117	0	31364	
6118	0	31286	
6119	0	30744	
6120	0	30460	
6121	0	30520	
6122	0	30968	
6123	0	31944	
6124	0	33388	
6125	0	35096	
6126	0	36768	
6127	0	37704	
6128	0	37236	
6129	0	35752	
6130	0	33944	
6131	0	32264	
6132	0	30872	
6133	0	29920	
6134	0	29514	
6135	0	29760	
6136	0	30632	
6137	0	31416	
6138	0	31324	
6139	0	30904	
6140	0	30568	
6141	0	30600	
6142	0	31096	
6143	0	32104	
6144	0	33528	
6145	0	35152	
6146	0	36800	
6147	0	37806	
6148	0	37432	
6149	0	36072	
6150	0	34236	
6151	0	32384	
6152	0	30944	
6153	0	29988	
6154	0	29632	
6155	0	29880	
6156	0	30704	
6157	0	31524	
6158	0	31628	
6159	0	31188	
6160	0	30728	
6161	0	30688	
6162	0	31258	
6163	0	32352	
6164	0	33756	
6165	0	35344	
6166	0	36956	
6167	0	37844	
6168	0	37396	
6169	0	35972	
6170	0	34148	
6171	0	32430	
6172	0	31060	
6173	0	30168	
6174	0	29856	
6175	0	30132	
6176	0	30996	
6177	0	31682	
6178	0	31640	
6179	0	31156	
6180	0	30724	
6181	0	30720	
6182	0	31204	
6183	0	32320	
6184	0	33832	
6185	0	35476	
6186	0	37108	
6187	0	38032	
6188	0	37608	
6189	0	36108	
6190	0	34288	
6191	0	32568	
6192	0	31212	
6193	0	30416	
6194	0	30092	
6195	0	30312	
6196	0	31162	
6197	0	31946	
6198	0	31826	
6199	0	31300	
6200	0	30904	
6201	0	30928	
6202	0	31468	
6203	0	32600	
6204	0	34080	
6205	0	35756	
6206	0	37376	
6207	0	38256	
6208	0	37808	
6209	0	36368	
6210	0	34568	
6211	0	32936	
6212	0	31584	
6213	0	30710	
6214	0	30376	
6215	0	30664	
6216	0	31576	
6217	0	32400	
6218	0	32320	
6219	0	31760	
6220	0	31356	
6221	0	31372	
6222	0	31912	
6223	0	33000	
6224	0	34432	
6225	0	36020	
6226	0	37640	
6227	0	38576	
6228	0	38116	
6229	0	36732	
6230	0	34888	
6231	0	33096	
6232	0	31736	
6233	0	30944	
6234	0	30616	
6235	0	30876	
6236	0	31812	
6237	0	32572	
6238	0	32516	
6239	0	32008	
6240	0	31704	
6241	0	31788	
6242	0	32348	
6243	0	33460	
6244	0	34936	
6245	0	36584	
6246	0	38208	
6247	0	39096	
6248	0	38624	
6249	0	37200	
6250	0	35428	
6251	0	33676	
6252	0	32272	
6253	0	31484	
6254	0	31176	
6255	0	31376	
6256	0	32180	
6257	0	32984	
6258	0	32956	
6259	0	32452	
6260	0	32000	
6261	0	31976	
6262	0	32520	
6263	0	33656	
6264	0	35088	
6265	0	36664	
6266	0	38200	
6267	0	39040	
6268	0	38568	
6269	0	37148	
6270	0	35236	
6271	0	33324	
6272	0	31688	
6273	0	30712	
6274	0	30308	
6275	0	30512	
6276	0	31424	
6277	0	32256	
6278	0	32236	
6279	0	31728	
6280	0	31272	
6281	0	31102	
6282	0	31484	
6283	0	32460	
6284	0	33800	
6285	0	35432	
6286	0	37064	
6287	0	37876	
6288	0	37280	
6289	0	35674	
6290	0	33808	
6291	0	32096	
6292	0	30650	
6293	0	29768	
6294	0	29392	
6295	0	29564	
6296	0	30384	
6297	0	31160	
6298	0	31128	
6299	0	30668	
6300	0	30308	
6301	0	30276	
6302	0	30816	
6303	0	31924	
6304	0	33364	
6305	0	34976	
6306	0	36524	
6307	0	37448	
6308	0	37132	
6309	0	35768	
6310	0	33956	
6311	0	32176	
6312	0	30748	
6313	0	29808	
6314	0	29440	
6315	0	29684	
6316	0	30468	
6317	0	31136	
6318	0	31104	
6319	0	30632	
6320	0	30224	
6321	0	30208	
6322	0	30748	
6323	0	31848	
6324	0	33344	
6325	0	34936	
6326	0	36548	
6327	0	37600	
6328	0	37200	
6329	0	35664	
6330	0	33792	
6331	0	32080	
6332	0	30688	
6333	0	29896	
6334	0	29568	
6335	0	29800	
6336	0	30592	
6337	0	31328	
6338	0	31265	
6339	0	30760	
6340	0	30456	
6341	0	30528	
6342	0	31044	
6343	0	32112	
6344	0	33532	
6345	0	35076	
6346	0	36684	
6347	0	37760	
6348	0	37500	
6349	0	36148	
6350	0	34332	
6351	0	32696	
6352	0	31376	
6353	0	30569	
6354	0	30372	
6355	0	30760	
6356	0	31816	
6357	0	32916	
6358	0	33184	
6359	0	32856	
6360	0	32544	
6361	0	32680	
6362	0	33376	
6363	0	34704	
6364	0	36376	
6365	0	38164	
6366	0	40044	
6367	0	41344	
6368	0	41188	
6369	0	39924	
6370	0	38276	
6371	0	36654	
6372	0	35232	
6373	0	34320	
6374	0	33948	
6375	0	34344	
6376	0	35344	
6377	0	36500	
6378	0	37264	
6379	0	37684	
6380	0	38040	
6381	0	38596	
6382	0	39360	
6383	0	40292	
6384	0	41336	
6385	0	42368	
6386	0	43332	
6387	0	43520	
6388	0	42264	
6389	0	40016	
6390	0	37496	
6391	0	35232	
6392	0	33396	
6393	0	32248	
6394	0	31808	
6395	0	31896	
6396	0	32448	
6397	0	32992	
6398	0	32900	
6399	0	32496	
6400	0	32224	
6401	0	32252	
6402	0	32704	
6403	0	33692	
6404	0	34944	
6405	0	36288	
6406	0	37696	
6407	0	38552	
6408	0	38084	
6409	0	36538	
6410	0	34480	
6411	0	32532	
6412	0	30920	
6413	0	29840	
6414	0	29292	
6415	0	29340	
6416	0	30072	
6417	0	30857	
6418	0	30792	
6419	0	30186	
6420	0	29704	
6421	0	29608	
6422	0	30096	
6423	0	31136	
6424	0	32604	
6425	0	34300	
6426	0	35936	
6427	0	37052	
6428	0	36812	
6429	0	35348	
6430	0	33464	
6431	0	31572	
6432	0	30056	
6433	0	29072	
6434	0	28652	
6435	0	28860	
6436	0	29588	
6437	0	30316	
6438	0	30340	
6439	0	29881	
6440	0	29584	
6441	0	29664	
6442	0	30192	
6443	0	31312	
6444	0	32820	
6445	0	34384	
6446	0	36032	
6447	0	37048	
6448	0	36720	
6449	0	35272	
6450	0	33412	
6451	0	31576	
6452	0	30048	
6453	0	29128	
6454	0	28812	
6455	0	29024	
6456	0	29812	
6457	0	30596	
6458	0	30628	
6459	0	30200	
6460	0	29760	
6461	0	29672	
6462	0	30128	
6463	0	31212	
6464	0	32700	
6465	0	34352	
6466	0	36016	
6467	0	36964	
6468	0	36600	
6469	0	35300	
6470	0	33532	
6471	0	31796	
6472	0	30392	
6473	0	29472	
6474	0	29136	
6475	0	29348	
6476	0	30216	
6477	0	31016	
6478	0	31008	
6479	0	30516	
6480	0	30136	
6481	0	30108	
6482	0	30644	
6483	0	31748	
6484	0	33162	
6485	0	34692	
6486	0	36280	
6487	0	37232	
6488	0	36956	
6489	0	35524	
6490	0	33596	
6491	0	31804	
6492	0	30440	
6493	0	29642	
6494	0	29296	
6495	0	29536	
6496	0	30372	
6497	0	31128	
6498	0	31096	
6499	0	30608	
6500	0	30252	
6501	0	30348	
6502	0	30888	
6503	0	31972	
6504	0	33520	
6505	0	35140	
6506	0	36668	
6507	0	37520	
6508	0	37100	
6509	0	35696	
6510	0	33920	
6511	0	32088	
6512	0	30616	
6513	0	29740	
6514	0	29436	
6515	0	29712	
6516	0	30588	
6517	0	31388	
6518	0	31484	
6519	0	31120	
6520	0	30776	
6521	0	30728	
6522	0	31216	
6523	0	32348	
6524	0	33816	
6525	0	35408	
6526	0	37040	
6527	0	38028	
6528	0	37616	
6529	0	36100	
6530	0	34208	
6531	0	32456	
6532	0	31060	
6533	0	30216	
6534	0	29960	
6535	0	30268	
6536	0	31120	
6537	0	31844	
6538	0	31756	
6539	0	31216	
6540	0	30808	
6541	0	30844	
6542	0	31416	
6543	0	32576	
6544	0	34100	
6545	0	35708	
6546	0	37228	
6547	0	38132	
6548	0	37788	
6549	0	36460	
6550	0	34736	
6551	0	33048	
6552	0	31568	
6553	0	30576	
6554	0	30128	
6555	0	30376	
6556	0	31280	
6557	0	32120	
6558	0	32096	
6559	0	31624	
6560	0	31296	
6561	0	31308	
6562	0	31812	
6563	0	32888	
6564	0	34244	
6565	0	35804	
6566	0	37520	
6567	0	38520	
6568	0	38168	
6569	0	36724	
6570	0	34916	
6571	0	33252	
6572	0	31920	
6573	0	31076	
6574	0	30752	
6575	0	30968	
6576	0	31848	
6577	0	32632	
6578	0	32672	
6579	0	32256	
6580	0	31936	
6581	0	31992	
6582	0	32528	
6583	0	33600	
6584	0	35068	
6585	0	36700	
6586	0	38356	
6587	0	39196	
6588	0	38856	
6589	0	37472	
6590	0	35608	
6591	0	33824	
6592	0	32384	
6593	0	31608	
6594	0	31352	
6595	0	31568	
6596	0	32368	
6597	0	33044	
6598	0	32908	
6599	0	32424	
6600	0	32156	
6601	0	32356	
6602	0	33012	
6603	0	34156	
6604	0	35624	
6605	0	37240	
6606	0	38848	
6607	0	39692	
6608	0	39176	
6609	0	37652	
6610	0	35780	
6611	0	34060	
6612	0	32648	
6613	0	31868	
6614	0	31636	
6615	0	31996	
6616	0	32920	
6617	0	33684	
6618	0	33602	
6619	0	32996	
6620	0	32613	
6621	0	32712	
6622	0	33324	
6623	0	34504	
6624	0	35984	
6625	0	37544	
6626	0	38988	
6627	0	39800	
6628	0	39368	
6629	0	37786	
6630	0	35944	
6631	0	34266	
6632	0	32820	
6633	0	31876	
6634	0	31488	
6635	0	31748	
6636	0	32656	
6637	0	33344	
6638	0	33158	
6639	0	32592	
6640	0	32216	
6641	0	32344	
6642	0	32928	
6643	0	34004	
6644	0	35432	
6645	0	37000	
6646	0	38534	
6647	0	39304	
6648	0	38740	
6649	0	37210	
6650	0	35308	
6651	0	33472	
6652	0	31904	
6653	0	30848	
6654	0	30520	
6655	0	30828	
6656	0	31656	
6657	0	32292	
6658	0	32056	
6659	0	31456	
6660	0	31008	
6661	0	31032	
6662	0	31692	
6663	0	32964	
6664	0	34488	
6665	0	35994	
6666	0	37444	
6667	0	38144	
6668	0	37544	
6669	0	35936	
6670	0	34016	
6671	0	32248	
6672	0	30776	
6673	0	29828	
6674	0	29428	
6675	0	29688	
6676	0	30536	
6677	0	31144	
6678	0	30900	
6679	0	30320	
6680	0	29948	
6681	0	29982	
6682	0	30554	
6683	0	31728	
6684	0	33228	
6685	0	34852	
6686	0	36476	
6687	0	37220	
6688	0	36496	
6689	0	34836	
6690	0	32968	
6691	0	31216	
6692	0	29680	
6693	0	28780	
6694	0	28504	
6695	0	28784	
6696	0	29668	
6697	0	30332	
6698	0	30160	
6699	0	29656	
6700	0	29244	
6701	0	29260	
6702	0	29892	
6703	0	31148	
6704	0	32660	
6705	0	34224	
6706	0	35760	
6707	0	36448	
6708	0	35760	
6709	0	34176	
6710	0	32304	
6711	0	30596	
6712	0	29232	
6713	0	28424	
6714	0	28168	
6715	0	28504	
6716	0	29360	
6717	0	29996	
6718	0	30008	
6719	0	29716	
6720	0	29444	
6721	0	29448	
6722	0	29988	
6723	0	31096	
6724	0	32604	
6725	0	34362	
6726	0	36048	
6727	0	36756	
6728	0	36024	
6729	0	34470	
6730	0	32530	
6731	0	30748	
6732	0	29408	
6733	0	28720	
6734	0	28537	
6735	0	28896	
6736	0	29768	
6737	0	30328	
6738	0	30044	
6739	0	29564	
6740	0	29225	
6741	0	29328	
6742	0	29936	
6743	0	31104	
6744	0	32540	
6745	0	34176	
6746	0	35916	
6747	0	36780	
6748	0	36132	
6749	0	34504	
6750	0	32584	
6751	0	30816	
6752	0	29468	
6753	0	28760	
6754	0	28552	
6755	0	28900	
6756	0	29834	
6757	0	30540	
6758	0	30416	
6759	0	29952	
6760	0	29608	
6761	0	29668	
6762	0	30228	
6763	0	31412	
6764	0	32900	
6765	0	34608	
6766	0	36256	
6767	0	37032	
6768	0	36344	
6769	0	34696	
6770	0	32772	
6771	0	30940	
6772	0	29484	
6773	0	28756	
6774	0	28608	
6775	0	28992	
6776	0	29936	
6777	0	30572	
6778	0	30424	
6779	0	30032	
6780	0	29784	
6781	0	29933	
6782	0	30556	
6783	0	31704	
6784	0	33264	
6785	0	35040	
6786	0	36772	
6787	0	37448	
6788	0	36736	
6789	0	35024	
6790	0	33136	
6791	0	31376	
6792	0	29972	
6793	0	29224	
6794	0	28980	
6795	0	29356	
6796	0	30361	
6797	0	31012	
6798	0	30828	
6799	0	30368	
6800	0	30096	
6801	0	30236	
6802	0	30832	
6803	0	32004	
6804	0	33460	
6805	0	35080	
6806	0	36668	
6807	0	37356	
6808	0	36584	
6809	0	34936	
6810	0	33152	
6811	0	31500	
6812	0	30210	
6813	0	29424	
6814	0	29212	
6815	0	29592	
6816	0	30498	
6817	0	30968	
6818	0	30748	
6819	0	30324	
6820	0	30080	
6821	0	30184	
6822	0	30832	
6823	0	32076	
6824	0	33628	
6825	0	35284	
6826	0	36824	
6827	0	37484	
6828	0	36792	
6829	0	35112	
6830	0	33144	
6831	0	31424	
6832	0	30164	
6833	0	29448	
6834	0	29272	
6835	0	29712	
6836	0	30608	
6837	0	31124	
6838	0	30780	
6839	0	30196	
6840	0	29928	
6841	0	30168	
6842	0	30860	
6843	0	32160	
6844	0	33704	
6845	0	35352	
6846	0	36938	
6847	0	37588	
6848	0	36900	
6849	0	35276	
6850	0	33360	
6851	0	31688	
6852	0	30352	
6853	0	29562	
6854	0	29312	
6855	0	29628	
6856	0	30536	
6857	0	31120	
6858	0	30816	
6859	0	30304	
6860	0	30052	
6861	0	30208	
6862	0	30872	
6863	0	32216	
6864	0	33932	
6865	0	35604	
6866	0	37056	
6867	0	37524	
6868	0	36704	
6869	0	35036	
6870	0	33136	
6871	0	31460	
6872	0	30208	
6873	0	29490	
6874	0	29320	
6875	0	29664	
6876	0	30600	
6877	0	31160	
6878	0	31072	
6879	0	30656	
6880	0	30344	
6881	0	30472	
6882	0	31136	
6883	0	32320	
6884	0	33812	
6885	0	35470	
6886	0	37056	
6887	0	37564	
6888	0	36752	
6889	0	35184	
6890	0	33372	
6891	0	31796	
6892	0	30472	
6893	0	29696	
6894	0	29440	
6895	0	29796	
6896	0	30712	
6897	0	31194	
6898	0	30972	
6899	0	30448	
6900	0	30094	
6901	0	30248	
6902	0	31004	
6903	0	32420	
6904	0	34128	
6905	0	35836	
6906	0	37336	
6907	0	37732	
6908	0	36832	
6909	0	35160	
6910	0	33308	
6911	0	31636	
6912	0	30372	
6913	0	29700	
6914	0	29576	
6915	0	29918	
6916	0	30804	
6917	0	31340	
6918	0	31064	
6919	0	30496	
6920	0	30236	
6921	0	30432	
6922	0	31212	
6923	0	32532	
6924	0	34148	
6925	0	35874	
6926	0	37460	
6927	0	37916	
6928	0	36976	
6929	0	35220	
6930	0	33402	
6931	0	31784	
6932	0	30488	
6933	0	29748	
6934	0	29612	
6935	0	29980	
6936	0	30852	
6937	0	31428	
6938	0	31224	
6939	0	30768	
6940	0	30372	
6941	0	30508	
6942	0	31300	
6943	0	32580	
6944	0	34040	
6945	0	35768	
6946	0	37408	
6947	0	37876	
6948	0	36948	
6949	0	35360	
6950	0	33544	
6951	0	31760	
6952	0	30392	
6953	0	29740	
6954	0	29610	
6955	0	29936	
6956	0	30800	
6957	0	31300	
6958	0	31052	
6959	0	30580	
6960	0	30364	
6961	0	30592	
6962	0	31296	
6963	0	32578	
6964	0	34192	
6965	0	35864	
6966	0	37324	
6967	0	37748	
6968	0	36936	
6969	0	35404	
6970	0	33568	
6971	0	31816	
6972	0	30456	
6973	0	29648	
6974	0	29500	
6975	0	30008	
6976	0	30992	
6977	0	31508	
6978	0	31212	
6979	0	30672	
6980	0	30480	
6981	0	30788	
6982	0	31578	
6983	0	32704	
6984	0	34189	
6985	0	35952	
6986	0	37520	
6987	0	37944	
6988	0	37016	
6989	0	35322	
6990	0	33472	
6991	0	31768	
6992	0	30376	
6993	0	29744	
6994	0	29760	
6995	0	30252	
6996	0	31120	
6997	0	31578	
6998	0	31280	
6999	0	30700	
7000	0	30408	
7001	0	30736	
7002	0	31544	
7003	0	32756	
7004	0	34296	
7005	0	36024	
7006	0	37572	
7007	0	37996	
7008	0	37104	
7009	0	35408	
7010	0	33596	
7011	0	31952	
7012	0	30680	
7013	0	30032	
7014	0	29904	
7015	0	30376	
7016	0	31336	
7017	0	31772	
7018	0	31432	
7019	0	30904	
7020	0	30720	
7021	0	31056	
7022	0	31840	
7023	0	32928	
7024	0	34312	
7025	0	35980	
7026	0	37504	
7027	0	37920	
7028	0	37056	
7029	0	35340	
7030	0	33480	
7031	0	31840	
7032	0	30588	
7033	0	29912	
7034	0	29888	
7035	0	30504	
7036	0	31512	
7037	0	31964	
7038	0	31620	
7039	0	31140	
7040	0	30938	
7041	0	31296	
7042	0	32136	
7043	0	33384	
7044	0	34852	
7045	0	36448	
7046	0	37920	
7047	0	38364	
7048	0	37528	
7049	0	35896	
7050	0	34144	
7051	0	32492	
7052	0	31160	
7053	0	30432	
7054	0	30264	
7055	0	30728	
7056	0	31632	
7057	0	32128	
7058	0	31904	
7059	0	31496	
7060	0	31324	
7061	0	31664	
7062	0	32536	
7063	0	33816	
7064	0	35325	
7065	0	37048	
7066	0	38632	
7067	0	39112	
7068	0	38226	
7069	0	36522	
7070	0	34684	
7071	0	33012	
7072	0	31732	
7073	0	31124	
7074	0	31072	
7075	0	31564	
7076	0	32544	
7077	0	33024	
7078	0	32672	
7079	0	32160	
7080	0	31848	
7081	0	32056	
7082	0	32872	
7083	0	34096	
7084	0	35480	
7085	0	37052	
7086	0	38548	
7087	0	38880	
7088	0	37992	
7089	0	36384	
7090	0	34544	
7091	0	32744	
7092	0	31404	
7093	0	30784	
7094	0	30628	
7095	0	30976	
7096	0	31920	
7097	0	32360	
7098	0	32056	
7099	0	31604	
7100	0	31364	
7101	0	31500	
7102	0	32194	
7103	0	33520	
7104	0	35136	
7105	0	36876	
7106	0	38304	
7107	0	38472	
7108	0	37220	
7109	0	35328	
7110	0	33402	
7111	0	31680	
7112	0	30320	
7113	0	29608	
7114	0	29442	
7115	0	29914	
7116	0	30928	
7117	0	31293	
7118	0	30840	
7119	0	30280	
7120	0	30004	
7121	0	30176	
7122	0	31024	
7123	0	32408	
7124	0	34000	
7125	0	35640	
7126	0	37144	
7127	0	37488	
7128	0	36496	
7129	0	34808	
7130	0	32952	
7131	0	31276	
7132	0	29964	
7133	0	29256	
7134	0	29160	
7135	0	29668	
7136	0	30586	
7137	0	31036	
7138	0	30780	
7139	0	30324	
7140	0	30164	
7141	0	30496	
7142	0	31260	
7143	0	32508	
7144	0	34128	
7145	0	35836	
7146	0	37232	
7147	0	37536	
7148	0	36608	
7149	0	34920	
7150	0	33136	
7151	0	31544	
7152	0	30136	
7153	0	29372	
7154	0	29252	
7155	0	29820	
7156	0	30808	
7157	0	31112	
7158	0	30736	
7159	0	30248	
7160	0	30024	
7161	0	30304	
7162	0	31152	
7163	0	32556	
7164	0	34160	
7165	0	35772	
7166	0	37236	
7167	0	37568	
7168	0	36520	
7169	0	34804	
7170	0	32864	
7171	0	31208	
7172	0	30028	
7173	0	29536	
7174	0	29708	
7175	0	30348	
7176	0	31336	
7177	0	31760	
7178	0	31408	
7179	0	30929	
7180	0	30820	
7181	0	31224	
7182	0	32260	
7183	0	33760	
7184	0	35580	
7185	0	37524	
7186	0	39096	
7187	0	39456	
7188	0	38488	
7189	0	36936	
7190	0	35372	
7191	0	34004	
7192	0	32968	
7193	0	32484	
7194	0	32620	
7195	0	33380	
7196	0	34592	
7197	0	35136	
7198	0	34920	
7199	0	34540	
7200	0	34432	
7201	0	34856	
7202	0	35928	
7203	0	37448	
7204	0	39188	
7205	0	41256	
7206	0	43372	
7207	0	44456	
7208	0	44124	
7209	0	42724	
7210	0	40896	
7211	0	39076	
7212	0	37424	
7213	0	36096	
7214	0	34956	
7215	0	34348	
7216	0	34432	
7217	0	34136	
7218	0	33332	
7219	0	32620	
7220	0	32172	
7221	0	32300	
7222	0	33064	
7223	0	34308	
7224	0	35796	
7225	0	37492	
7226	0	39000	
7227	0	39240	
7228	0	38216	
7229	0	36416	
7230	0	34480	
7231	0	32720	
7232	0	31276	
7233	0	30416	
7234	0	30228	
7235	0	30712	
7236	0	31588	
7237	0	31746	
7238	0	31196	
7239	0	30588	
7240	0	30188	
7241	0	30232	
7242	0	30880	
7243	0	32112	
7244	0	33664	
7245	0	35380	
7246	0	36856	
7247	0	37092	
7248	0	36032	
7249	0	34232	
7250	0	32360	
7251	0	30772	
7252	0	29568	
7253	0	28980	
7254	0	28900	
7255	0	29412	
7256	0	30424	
7257	0	30812	
7258	0	30516	
7259	0	29964	
7260	0	29636	
7261	0	29820	
7262	0	30708	
7263	0	32132	
7264	0	33752	
7265	0	35504	
7266	0	36896	
7267	0	37068	
7268	0	36068	
7269	0	34404	
7270	0	32600	
7271	0	31008	
7272	0	29764	
7273	0	29084	
7274	0	29072	
7275	0	29684	
7276	0	30760	
7277	0	31108	
7278	0	30656	
7279	0	30104	
7280	0	29924	
7281	0	30214	
7282	0	31108	
7283	0	32416	
7284	0	33964	
7285	0	35508	
7286	0	36856	
7287	0	37012	
7288	0	35968	
7289	0	34320	
7290	0	32540	
7291	0	30900	
7292	0	29704	
7293	0	29144	
7294	0	29288	
7295	0	29944	
7296	0	30880	
7297	0	31100	
7298	0	30660	
7299	0	30276	
7300	0	30088	
7301	0	30208	
7302	0	30896	
7303	0	32276	
7304	0	33920	
7305	0	35612	
7306	0	37064	
7307	0	37232	
7308	0	36264	
7309	0	34656	
7310	0	32856	
7311	0	31264	
7312	0	29992	
7313	0	29328	
7314	0	29264	
7315	0	29820	
7316	0	30912	
7317	0	31368	
7318	0	31052	
7319	0	30560	
7320	0	30372	
7321	0	30592	
7322	0	31300	
7323	0	32620	
7324	0	34248	
7325	0	35956	
7326	0	37400	
7327	0	37704	
7328	0	36732	
7329	0	35000	
7330	0	33136	
7331	0	31524	
7332	0	30254	
7333	0	29592	
7334	0	29608	
7335	0	30216	
7336	0	31240	
7337	0	31668	
7338	0	31308	
7339	0	30728	
7340	0	30456	
7341	0	30756	
7342	0	31652	
7343	0	32984	
7344	0	34492	
7345	0	36100	
7346	0	37584	
7347	0	37864	
7348	0	36856	
7349	0	35056	
7350	0	33204	
7351	0	31640	
7352	0	30408	
7353	0	29764	
7354	0	29752	
7355	0	30324	
7356	0	31300	
7357	0	31716	
7358	0	31312	
7359	0	30712	
7360	0	30504	
7361	0	30874	
7362	0	31744	
7363	0	33048	
7364	0	34660	
7365	0	36416	
7366	0	37916	
7367	0	38240	
7368	0	37252	
7369	0	35516	
7370	0	33620	
7371	0	31956	
7372	0	30788	
7373	0	30280	
7374	0	30276	
7375	0	30856	
7376	0	31856	
7377	0	32184	
7378	0	31738	
7379	0	31092	
7380	0	30748	
7381	0	31068	
7382	0	32024	
7383	0	33397	
7384	0	35048	
7385	0	36784	
7386	0	38228	
7387	0	38520	
7388	0	37564	
7389	0	35868	
7390	0	34068	
7391	0	32492	
7392	0	31288	
7393	0	30664	
7394	0	30490	
7395	0	30988	
7396	0	32044	
7397	0	32536	
7398	0	32360	
7399	0	31960	
7400	0	31660	
7401	0	31856	
7402	0	32776	
7403	0	34136	
7404	0	35664	
7405	0	37384	
7406	0	38788	
7407	0	39016	
7408	0	37916	
7409	0	36248	
7410	0	34520	
7411	0	32900	
7412	0	31684	
7413	0	31084	
7414	0	31036	
7415	0	31641	
7416	0	32624	
7417	0	32888	
7418	0	32536	
7419	0	32172	
7420	0	32132	
7421	0	32440	
7422	0	33192	
7423	0	34536	
7424	0	36156	
7425	0	37904	
7426	0	39412	
7427	0	39682	
7428	0	38632	
7429	0	36842	
7430	0	34964	
7431	0	33378	
7432	0	32164	
7433	0	31644	
7434	0	31700	
7435	0	32248	
7436	0	33104	
7437	0	33344	
7438	0	33016	
7439	0	32576	
7440	0	32332	
7441	0	32588	
7442	0	33396	
7443	0	34732	
7444	0	36336	
7445	0	37984	
7446	0	39360	
7447	0	39636	
7448	0	38690	
7449	0	37052	
7450	0	35264	
7451	0	33600	
7452	0	32280	
7453	0	31648	
7454	0	31576	
7455	0	32128	
7456	0	33184	
7457	0	33536	
7458	0	33140	
7459	0	32540	
7460	0	32300	
7461	0	32488	
7462	0	33324	
7463	0	34660	
7464	0	36176	
7465	0	37728	
7466	0	39112	
7467	0	39392	
7468	0	38384	
7469	0	36704	
7470	0	34848	
7471	0	33100	
7472	0	31740	
7473	0	31000	
7474	0	31004	
7475	0	31564	
7476	0	32468	
7477	0	32744	
7478	0	32416	
7479	0	31880	
7480	0	31672	
7481	0	31936	
7482	0	32648	
7483	0	33824	
7484	0	35284	
7485	0	36840	
7486	0	38210	
7487	0	38536	
7488	0	37492	
7489	0	35632	
7490	0	33692	
7491	0	31932	
7492	0	30444	
7493	0	29696	
7494	0	29612	
7495	0	30192	
7496	0	31188	
7497	0	31540	
7498	0	31116	
7499	0	30536	
7500	0	30272	
7501	0	30452	
7502	0	31192	
7503	0	32480	
7504	0	34012	
7505	0	35660	
7506	0	37056	
7507	0	37400	
7508	0	36360	
7509	0	34476	
7510	0	32456	
7511	0	30720	
7512	0	29486	
7513	0	28840	
7514	0	28692	
7515	0	29176	
7516	0	30176	
7517	0	30532	
7518	0	30138	
7519	0	29622	
7520	0	29368	
7521	0	29532	
7522	0	30236	
7523	0	31520	
7524	0	33064	
7525	0	34808	
7526	0	36324	
7527	0	36664	
7528	0	35776	
7529	0	34132	
7530	0	32256	
7531	0	30640	
7532	0	29442	
7533	0	28724	
7534	0	28528	
7535	0	28964	
7536	0	29904	
7537	0	30284	
7538	0	29944	
7539	0	29416	
7540	0	29124	
7541	0	29356	
7542	0	30148	
7543	0	31408	
7544	0	33024	
7545	0	34720	
7546	0	36144	
7547	0	36464	
7548	0	35596	
7549	0	33904	
7550	0	32004	
7551	0	30314	
7552	0	29028	
7553	0	28404	
7554	0	28388	
7555	0	28964	
7556	0	29928	
7557	0	30344	
7558	0	30008	
7559	0	29544	
7560	0	29356	
7561	0	29648	
7562	0	30452	
7563	0	31668	
7564	0	33204	
7565	0	34840	
7566	0	36292	
7567	0	36632	
7568	0	35752	
7569	0	34116	
7570	0	32232	
7571	0	30632	
7572	0	29360	
7573	0	28724	
7574	0	28610	
7575	0	29104	
7576	0	30116	
7577	0	30556	
7578	0	30244	
7579	0	29776	
7580	0	29637	
7581	0	29820	
7582	0	30500	
7583	0	31692	
7584	0	33228	
7585	0	34928	
7586	0	36472	
7587	0	36940	
7588	0	36064	
7589	0	34396	
7590	0	32516	
7591	0	30772	
7592	0	29468	
7593	0	28832	
7594	0	28756	
7595	0	29252	
7596	0	30184	
7597	0	30666	
7598	0	30384	
7599	0	29936	
7600	0	29720	
7601	0	29932	
7602	0	30744	
7603	0	32060	
7604	0	33652	
7605	0	35280	
7606	0	36748	
7607	0	37232	
7608	0	36376	
7609	0	34728	
7610	0	32940	
7611	0	31244	
7612	0	29884	
7613	0	29248	
7614	0	29200	
7615	0	29736	
7616	0	30722	
7617	0	31144	
7618	0	30753	
7619	0	30170	
7620	0	29904	
7621	0	30112	
7622	0	30884	
7623	0	32212	
7624	0	33788	
7625	0	35472	
7626	0	37008	
7627	0	37508	
7628	0	36596	
7629	0	34908	
7630	0	33036	
7631	0	31364	
7632	0	30084	
7633	0	29340	
7634	0	29204	
7635	0	29692	
7636	0	30680	
7637	0	31166	
7638	0	30900	
7639	0	30432	
7640	0	30216	
7641	0	30410	
7642	0	31096	
7643	0	32304	
7644	0	33816	
7645	0	35472	
7646	0	37020	
7647	0	37464	
7648	0	36580	
7649	0	34940	
7650	0	33112	
7651	0	31477	
7652	0	30152	
7653	0	29442	
7654	0	29312	
7655	0	29768	
7656	0	30680	
7657	0	31128	
7658	0	30920	
7659	0	30472	
7660	0	30184	
7661	0	30373	
7662	0	31134	
7663	0	32344	
7664	0	33916	
7665	0	35620	
7666	0	37224	
7667	0	37732	
7668	0	36824	
7669	0	35100	
7670	0	33232	
7671	0	31528	
7672	0	30184	
7673	0	29412	
7674	0	29304	
7675	0	29792	
7676	0	30744	
7677	0	31244	
7678	0	30928	
7679	0	30392	
7680	0	30088	
7681	0	30248	
7682	0	31024	
7683	0	32348	
7684	0	33952	
7685	0	35600	
7686	0	37100	
7687	0	37668	
7688	0	36832	
7689	0	35156	
7690	0	33260	
7691	0	31568	
7692	0	30220	
7693	0	29562	
7694	0	29424	
7695	0	29880	
7696	0	30796	
7697	0	31268	
7698	0	30964	
7699	0	30428	
7700	0	30172	
7701	0	30384	
7702	0	31156	
7703	0	32348	
7704	0	33892	
7705	0	35604	
7706	0	37192	
7707	0	37752	
7708	0	36964	
7709	0	35344	
7710	0	33480	
7711	0	31772	
7712	0	30412	
7713	0	29656	
7714	0	29488	
7715	0	29912	
7716	0	30840	
7717	0	31284	
7718	0	30976	
7719	0	30496	
7720	0	30213	
7721	0	30372	
7722	0	31062	
7723	0	32328	
7724	0	33848	
7725	0	35512	
7726	0	37076	
7727	0	37752	
7728	0	37048	
7729	0	35352	
7730	0	33368	
7731	0	31604	
7732	0	30244	
7733	0	29568	
7734	0	29488	
7735	0	29908	
7736	0	30856	
7737	0	31428	
7738	0	31200	
7739	0	30664	
7740	0	30344	
7741	0	30448	
7742	0	31156	
7743	0	32460	
7744	0	34008	
7745	0	35696	
7746	0	37356	
7747	0	37952	
7748	0	37096	
7749	0	35388	
7750	0	33452	
7751	0	31696	
7752	0	30324	
7753	0	29640	
7754	0	29536	
7755	0	29896	
7756	0	30804	
7757	0	31344	
7758	0	31112	
7759	0	30672	
7760	0	30332	
7761	0	30444	
7762	0	31096	
7763	0	32280	
7764	0	33792	
7765	0	35472	
7766	0	37104	
7767	0	37772	
7768	0	37020	
7769	0	35404	
7770	0	33548	
7771	0	31744	
7772	0	30404	
7773	0	29676	
7774	0	29420	
7775	0	29784	
7776	0	30724	
7777	0	31320	
7778	0	31208	
7779	0	30808	
7780	0	30572	
7781	0	30656	
7782	0	31236	
7783	0	32424	
7784	0	33942	
7785	0	35586	
7786	0	37196	
7787	0	37896	
7788	0	37132	
7789	0	35456	
7790	0	33616	
7791	0	31996	
7792	0	30648	
7793	0	29816	
7794	0	29572	
7795	0	29908	
7796	0	30872	
7797	0	31552	
7798	0	31376	
7799	0	30856	
7800	0	30518	
7801	0	30568	
7802	0	31144	
7803	0	32384	
7804	0	33936	
7805	0	35596	
7806	0	37228	
7807	0	38008	
7808	0	37416	
7809	0	35768	
7810	0	33764	
7811	0	31924	
7812	0	30544	
7813	0	29840	
7814	0	29740	
7815	0	30136	
7816	0	31020	
7817	0	31528	
7818	0	31308	
7819	0	30876	
7820	0	30612	
7821	0	30756	
7822	0	31424	
7823	0	32624	
7824	0	34136	
7825	0	35752	
7826	0	37368	
7827	0	38124	
7828	0	37480	
7829	0	35928	
7830	0	34116	
7831	0	32428	
7832	0	31100	
7833	0	30321	
7834	0	30036	
7835	0	30336	
7836	0	31200	
7837	0	31904	
7838	0	31884	
7839	0	31324	
7840	0	30968	
7841	0	31106	
7842	0	31760	
7843	0	32972	
7844	0	34416	
7845	0	36026	
7846	0	37664	
7847	0	38400	
7848	0	37744	
7849	0	36200	
7850	0	34370	
7851	0	32640	
7852	0	31201	
7853	0	30416	
7854	0	30192	
7855	0	30476	
7856	0	31396	
7857	0	32106	
7858	0	32028	
7859	0	31564	
7860	0	31280	
7861	0	31450	
7862	0	32116	
7863	0	33320	
7864	0	34860	
7865	0	36512	
7866	0	38156	
7867	0	39024	
7868	0	38508	
7869	0	37056	
7870	0	35252	
7871	0	33530	
7872	0	32112	
7873	0	31200	
7874	0	30880	
7875	0	31196	
7876	0	32088	
7877	0	32756	
7878	0	32628	
7879	0	32076	
7880	0	31716	
7881	0	31788	
7882	0	32368	
7883	0	33492	
7884	0	34872	
7885	0	36468	
7886	0	38136	
7887	0	39008	
7888	0	38434	
7889	0	36864	
7890	0	34940	
7891	0	33148	
7892	0	31648	
7893	0	30722	
7894	0	30380	
7895	0	30656	
7896	0	31500	
7897	0	32116	
7898	0	31904	
7899	0	31320	
7900	0	30908	
7901	0	30964	
7902	0	31644	
7903	0	32860	
7904	0	34320	
7905	0	35848	
7906	0	37320	
7907	0	38000	
7908	0	37296	
7909	0	35696	
7910	0	33820	
7911	0	31980	
7912	0	30448	
7913	0	29504	
7914	0	29208	
7915	0	29492	
7916	0	30404	
7917	0	31132	
7918	0	30960	
7919	0	30432	
7920	0	30092	
7921	0	30160	
7922	0	30776	
7923	0	31924	
7924	0	33376	
7925	0	35000	
7926	0	36684	
7927	0	37588	
7928	0	37096	
7929	0	35544	
7930	0	33664	
7931	0	31920	
7932	0	30508	
7933	0	29576	
7934	0	29184	
7935	0	29448	
7936	0	30305	
7937	0	31024	
7938	0	30972	
7939	0	30472	
7940	0	30076	
7941	0	30072	
7942	0	30620	
7943	0	31776	
7944	0	33300	
7945	0	34960	
7946	0	36708	
7947	0	37620	
7948	0	37060	
7949	0	35432	
7950	0	33472	
7951	0	31748	
7952	0	30320	
7953	0	29400	
7954	0	29098	
7955	0	29400	
7956	0	30320	
7957	0	31104	
7958	0	31002	
7959	0	30536	
7960	0	30224	
7961	0	30272	
7962	0	30816	
7963	0	31920	
7964	0	33448	
7965	0	35160	
7966	0	36884	
7967	0	37864	
7968	0	37392	
7969	0	35892	
7970	0	33996	
7971	0	32216	
7972	0	30840	
7973	0	30068	
7974	0	29800	
7975	0	30130	
7976	0	31076	
7977	0	31922	
7978	0	31964	
7979	0	31556	
7980	0	31344	
7981	0	31548	
7982	0	32388	
7983	0	33716	
7984	0	35348	
7985	0	37196	
7986	0	39128	
7987	0	40356	
7988	0	40212	
7989	0	39016	
7990	0	37396	
7991	0	35820	
7992	0	34496	
7993	0	33696	
7994	0	33474	
7995	0	33792	
7996	0	34624	
7997	0	35488	
7998	0	35504	
7999	0	35176	
8000	0	35104	
8001	0	35564	
8002	0	36816	
8003	0	38680	
8004	0	40848	
8005	0	42928	
8006	0	44752	
8007	0	45716	
8008	0	45184	
8009	0	43340	
8010	0	40840	
8011	0	38152	
8012	0	35740	
8013	0	33920	
8014	0	32808	
8015	0	32488	
8016	0	33076	
8017	0	33776	
8018	0	33596	
8019	0	32840	
8020	0	32200	
8021	0	32004	
8022	0	32464	
8023	0	33604	
8024	0	35124	
8025	0	36776	
8026	0	38456	
8027	0	39404	
8028	0	38912	
8029	0	37268	
8030	0	35224	
8031	0	33236	
8032	0	31516	
8033	0	30380	
8034	0	29888	
8035	0	29948	
8036	0	30532	
8037	0	31108	
8038	0	30896	
8039	0	30268	
8040	0	29840	
8041	0	29828	
8042	0	30314	
8043	0	31392	
8044	0	32800	
8045	0	34408	
8046	0	36124	
8047	0	37108	
8048	0	36672	
8049	0	35188	
8050	0	33252	
8051	0	31432	
8052	0	29976	
8053	0	29072	
8054	0	28750	
8055	0	28920	
8056	0	29636	
8057	0	30396	
8058	0	30378	
8059	0	29928	
8060	0	29644	
8061	0	29680	
8062	0	30180	
8063	0	31186	
8064	0	32576	
8065	0	34240	
8066	0	35920	
8067	0	36968	
8068	0	36612	
8069	0	35168	
8070	0	33324	
8071	0	31536	
8072	0	30088	
8073	0	29076	
8074	0	28656	
8075	0	28872	
8076	0	29688	
8077	0	30484	
8078	0	30456	
8079	0	29992	
8080	0	29692	
8081	0	29792	
8082	0	30364	
8083	0	31408	
8084	0	32792	
8085	0	34408	
8086	0	36064	
8087	0	37092	
8088	0	36732	
8089	0	35328	
8090	0	33456	
8091	0	31712	
8092	0	30236	
8093	0	29288	
8094	0	28980	
8095	0	29228	
8096	0	30120	
8097	0	30936	
8098	0	30880	
8099	0	30324	
8100	0	29900	
8101	0	29860	
8102	0	30404	
8103	0	31492	
8104	0	33000	
8105	0	34716	
8106	0	36352	
8107	0	37336	
8108	0	36992	
8109	0	35576	
8110	0	33712	
8111	0	31952	
8112	0	30524	
8113	0	29566	
8114	0	29132	
8115	0	29332	
8116	0	30184	
8117	0	31000	
8118	0	31024	
8119	0	30504	
8120	0	30168	
8121	0	30188	
8122	0	30648	
8123	0	31696	
8124	0	33092	
8125	0	34712	
8126	0	36404	
8127	0	37524	
8128	0	37200	
8129	0	35704	
8130	0	33848	
8131	0	32068	
8132	0	30640	
8133	0	29736	
8134	0	29400	
8135	0	29624	
8136	0	30476	
8137	0	31316	
8138	0	31316	
8139	0	30816	
8140	0	30444	
8141	0	30416	
8142	0	30896	
8143	0	31944	
8144	0	33360	
8145	0	35000	
8146	0	36656	
8147	0	37752	
8148	0	37476	
8149	0	36060	
8150	0	34212	
8151	0	32424	
8152	0	30928	
8153	0	29900	
8154	0	29524	
8155	0	29760	
8156	0	30548	
8157	0	31320	
8158	0	31328	
8159	0	30888	
8160	0	30564	
8161	0	30548	
8162	0	31092	
8163	0	32144	
8164	0	33620	
8165	0	35272	
8166	0	36932	
8167	0	38036	
8168	0	37800	
8169	0	36424	
8170	0	34652	
8171	0	32912	
8172	0	31436	
8173	0	30428	
8174	0	30000	
8175	0	30140	
8176	0	30860	
8177	0	31772	
8178	0	31900	
8179	0	31444	
8180	0	31050	
8181	0	31088	
8182	0	31584	
8183	0	32612	
8184	0	33996	
8185	0	35612	
8186	0	37328	
8187	0	38504	
8188	0	38372	
8189	0	37044	
8190	0	35184	
8191	0	33320	
8192	0	31748	
8193	0	30754	
8194	0	30372	
8195	0	30632	
8196	0	31458	
8197	0	32324	
8198	0	32328	
8199	0	31752	
8200	0	31408	
8201	0	31536	
8202	0	32080	
8203	0	33124	
8204	0	34524	
8205	0	36096	
8206	0	37772	
8207	0	38956	
8208	0	38832	
8209	0	37440	
8210	0	35540	
8211	0	33776	
8212	0	32240	
8213	0	31228	
8214	0	30776	
8215	0	30976	
8216	0	31776	
8217	0	32698	
8218	0	32768	
8219	0	32292	
8220	0	31864	
8221	0	31832	
8222	0	32340	
8223	0	33404	
8224	0	34840	
8225	0	36504	
8226	0	38192	
8227	0	39376	
8228	0	39268	
8229	0	38096	
8230	0	36336	
8231	0	34496	
8232	0	32892	
8233	0	31776	
8234	0	31346	
8235	0	31524	
8236	0	32332	
8237	0	33224	
8238	0	33216	
8239	0	32700	
8240	0	32304	
8241	0	32352	
8242	0	32868	
8243	0	33832	
8244	0	35192	
8245	0	36796	
8246	0	38468	
8247	0	39668	
8248	0	39532	
8249	0	38232	
8250	0	36296	
8251	0	34408	
8252	0	32888	
8253	0	31840	
8254	0	31386	
8255	0	31484	
8256	0	32168	
8257	0	33082	
8258	0	33200	
8259	0	32688	
8260	0	32188	
8261	0	32084	
8262	0	32500	
8263	0	33456	
8264	0	34842	
8265	0	36400	
8266	0	37992	
8267	0	39140	
8268	0	39040	
8269	0	37792	
8270	0	36064	
8271	0	34248	
8272	0	32608	
8273	0	31408	
8274	0	30824	
8275	0	30888	
8276	0	31508	
8277	0	32304	
8278	0	32352	
8279	0	31836	
8280	0	31328	
8281	0	31156	
8282	0	31520	
8283	0	32450	
8284	0	33732	
8285	0	35176	
8286	0	36800	
8287	0	38012	
8288	0	37880	
8289	0	36488	
8290	0	34492	
8291	0	32628	
8292	0	31044	
8293	0	29872	
8294	0	29258	
8295	0	29356	
8296	0	30128	
8297	0	31100	
8298	0	31248	
8299	0	30784	
8300	0	30328	
8301	0	30196	
8302	0	30556	
8303	0	31408	
8304	0	32668	
8305	0	34168	
8306	0	35804	
8307	0	37052	
8308	0	36960	
8309	0	35608	
8310	0	33708	
8311	0	31756	
8312	0	30148	
8313	0	29084	
8314	0	28636	
8315	0	28696	
8316	0	29296	
8317	0	30172	
8318	0	30396	
8319	0	29876	
8320	0	29360	
8321	0	29284	
8322	0	29712	
8323	0	30608	
8324	0	31936	
8325	0	33504	
8326	0	35180	
8327	0	36500	
8328	0	36468	
8329	0	35192	
8330	0	33300	
8331	0	31404	
8332	0	29812	
8333	0	28728	
8334	0	28204	
8335	0	28272	
8336	0	28954	
8337	0	29948	
8338	0	30152	
8339	0	29708	
8340	0	29234	
8341	0	29088	
8342	0	29484	
8343	0	30436	
8344	0	31852	
8345	0	33480	
8346	0	35184	
8347	0	36520	
8348	0	36464	
8349	0	35160	
8350	0	33240	
8351	0	31328	
8352	0	29792	
8353	0	28756	
8354	0	28312	
8355	0	28438	
8356	0	29050	
8357	0	29962	
8358	0	30160	
8359	0	29760	
8360	0	29250	
8361	0	29076	
8362	0	29496	
8363	0	30564	
8364	0	32056	
8365	0	33720	
8366	0	35416	
8367	0	36832	
8368	0	36892	
8369	0	35634	
8370	0	33744	
8371	0	31828	
8372	0	30226	
8373	0	29136	
8374	0	28664	
8375	0	28700	
8376	0	29280	
8377	0	30208	
8378	0	30464	
8379	0	30096	
8380	0	29652	
8381	0	29484	
8382	0	29804	
8383	0	30768	
8384	0	32168	
8385	0	33808	
8386	0	35516	
8387	0	36880	
8388	0	36964	
8389	0	35768	
8390	0	33876	
8391	0	31912	
8392	0	30444	
8393	0	29384	
8394	0	28794	
8395	0	28800	
8396	0	29400	
8397	0	30340	
8398	0	30560	
8399	0	30164	
8400	0	29740	
8401	0	29676	
8402	0	30048	
8403	0	30960	
8404	0	32360	
8405	0	34024	
8406	0	35744	
8407	0	37104	
8408	0	37204	
8409	0	36088	
8410	0	34284	
8411	0	32404	
8412	0	30724	
8413	0	29488	
8414	0	28940	
8415	0	29010	
8416	0	29656	
8417	0	30648	
8418	0	30880	
8419	0	30410	
8420	0	29928	
8421	0	29840	
8422	0	30188	
8423	0	31096	
8424	0	32552	
8425	0	34252	
8426	0	36026	
8427	0	37404	
8428	0	37436	
8429	0	36252	
8430	0	34380	
8431	0	32430	
8432	0	30768	
8433	0	29676	
8434	0	29184	
8435	0	29236	
8436	0	29812	
8437	0	30852	
8438	0	31092	
8439	0	30604	
8440	0	30125	
8441	0	30008	
8442	0	30368	
8443	0	31312	
8444	0	32664	
8445	0	34296	
8446	0	36052	
8447	0	37444	
8448	0	37484	
8449	0	36264	
8450	0	34468	
8451	0	32696	
8452	0	31188	
8453	0	29984	
8454	0	29368	
8455	0	29372	
8456	0	29992	
8457	0	30948	
8458	0	31236	
8459	0	30840	
8460	0	30384	
8461	0	30226	
8462	0	30576	
8463	0	31468	
8464	0	32809	
8465	0	34404	
8466	0	36012	
8467	0	37396	
8468	0	37556	
8469	0	36488	
8470	0	34632	
8471	0	32688	
8472	0	31012	
8473	0	29828	
8474	0	29260	
8475	0	29284	
8476	0	29868	
8477	0	30808	
8478	0	31168	
8479	0	30800	
8480	0	30304	
8481	0	30088	
8482	0	30424	
8483	0	31320	
8484	0	32672	
8485	0	34348	
8486	0	36076	
8487	0	37472	
8488	0	37624	
8489	0	36484	
8490	0	34628	
8491	0	32760	
8492	0	31160	
8493	0	29976	
8494	0	29352	
8495	0	29378	
8496	0	30016	
8497	0	31056	
8498	0	31384	
8499	0	30972	
8500	0	30496	
8501	0	30356	
8502	0	30716	
8503	0	31560	
8504	0	32852	
8505	0	34368	
8506	0	36000	
8507	0	37384	
8508	0	37608	
8509	0	36624	
8510	0	34888	
8511	0	33060	
8512	0	31422	
8513	0	30160	
8514	0	29536	
8515	0	29488	
8516	0	30044	
8517	0	31000	
8518	0	31360	
8519	0	30924	
8520	0	30362	
8521	0	30192	
8522	0	30529	
8523	0	31474	
8524	0	32864	
8525	0	34412	
8526	0	36020	
8527	0	37424	
8528	0	37696	
8529	0	36712	
8530	0	34936	
8531	0	33024	
8532	0	31316	
8533	0	30056	
8534	0	29432	
8535	0	29360	
8536	0	30020	
8537	0	31172	
8538	0	31576	
8539	0	31168	
8540	0	30664	
8541	0	30432	
8542	0	30652	
8543	0	31456	
8544	0	32648	
8545	0	34186	
8546	0	35944	
8547	0	37460	
8548	0	37744	
8549	0	36732	
8550	0	34980	
8551	0	33048	
8552	0	31456	
8553	0	30260	
8554	0	29600	
8555	0	29564	
8556	0	30168	
8557	0	31136	
8558	0	31410	
8559	0	31016	
8560	0	30504	
8561	0	30350	
8562	0	30630	
8563	0	31444	
8564	0	32736	
8565	0	34280	
8566	0	35948	
8567	0	37468	
8568	0	37748	
8569	0	36692	
8570	0	34896	
8571	0	33042	
8572	0	31492	
8573	0	30328	
8574	0	29816	
8575	0	29842	
8576	0	30428	
8577	0	31392	
8578	0	31664	
8579	0	31224	
8580	0	30673	
8581	0	30488	
8582	0	30796	
8583	0	31688	
8584	0	33024	
8585	0	34632	
8586	0	36352	
8587	0	37772	
8588	0	37800	
8589	0	36584	
8590	0	34818	
8591	0	32948	
8592	0	31376	
8593	0	30232	
