# OpenSignals Text File Format. Version 1
# {"00:07:80:0F:31:47": {"position": 0, "device": "biosignalsplux", "device name": "00:07:80:0F:31:47", "device connection": "BTH00:07:80:0F:31:47", "sampling rate": 1000, "resolution": [16], "firmware version": 775, "comments": "", "keywords": "", "mode": 0, "sync interval": 2, "date": "2023-2-9", "time": "16:53:38.666", "channels": [1], "sensor": ["ECG"], "label": ["CH1"], "column": ["nSeq", "DI", "CH1"], "special": [{"SpO2": [80, 40, 5, 4, 3, 3]}, {"SpO2": [80, 40, 5, 4, 3, 3]}, {"SpO2": [80, 40, 5, 4, 3, 3]}, {"SpO2": [80, 40, 5, 4, 3, 3]}, {"SpO2": [80, 40, 5, 4, 3, 3]}, {"SpO2": [80, 40, 5, 4, 3, 3]}, {"SpO2": [80, 40, 5, 4, 3, 3]}, {"SpO2": [80, 40, 5, 4, 3, 3]}], "digital IO": [0, 1], "sleeve color": [""]}}
# EndOfHeader
0	0	33712	
1	0	33792	
2	0	33584	
3	0	33176	
4	0	32624	
5	0	31916	
6	0	31232	
7	0	30576	
8	0	30196	
9	0	30592	
10	0	31568	
11	0	32672	
12	0	33724	
13	0	34580	
14	0	35116	
15	0	35232	
16	0	35000	
17	0	34488	
18	0	33980	
19	0	33924	
20	0	34168	
21	0	34292	
22	0	34165	
23	0	33800	
24	0	33132	
25	0	32256	
26	0	31358	
27	0	30386	
28	0	29716	
29	0	29868	
30	0	30570	
31	0	31572	
32	0	32644	
33	0	33644	
34	0	34204	
35	0	34316	
36	0	34376	
37	0	34424	
38	0	34656	
39	0	35212	
40	0	35740	
41	0	36012	
42	0	36032	
43	0	35840	
44	0	35396	
45	0	34808	
46	0	34184	
47	0	33564	
48	0	33128	
49	0	33344	
50	0	34108	
51	0	35024	
52	0	35836	
53	0	36448	
54	0	36812	
55	0	36870	
56	0	36672	
57	0	36160	
58	0	35456	
59	0	35180	
60	0	35258	
61	0	35400	
62	0	35300	
63	0	34904	
64	0	34288	
65	0	33532	
66	0	32736	
67	0	32056	
68	0	31772	
69	0	32060	
70	0	32928	
71	0	34196	
72	0	35536	
73	0	36680	
74	0	37336	
75	0	37308	
76	0	36704	
77	0	35808	
78	0	34892	
79	0	34492	
80	0	34600	
81	0	34840	
82	0	34972	
83	0	34916	
84	0	34692	
85	0	34084	
86	0	33112	
87	0	32048	
88	0	31228	
89	0	31224	
90	0	31872	
91	0	32972	
92	0	34152	
93	0	35252	
94	0	36136	
95	0	36628	
96	0	36772	
97	0	36412	
98	0	35728	
99	0	35436	
100	0	35672	
101	0	35808	
102	0	35628	
103	0	35284	
104	0	34828	
105	0	34316	
106	0	33880	
107	0	33456	
108	0	33244	
109	0	33596	
110	0	34370	
111	0	35088	
112	0	35632	
113	0	36008	
114	0	35984	
115	0	35564	
116	0	34968	
117	0	34172	
118	0	33348	
119	0	33028	
120	0	33228	
121	0	33476	
122	0	33676	
123	0	33904	
124	0	33800	
125	0	33320	
126	0	32736	
127	0	32322	
128	0	32276	
129	0	32800	
130	0	33536	
131	0	34128	
132	0	34460	
133	0	34616	
134	0	34584	
135	0	34544	
136	0	34380	
137	0	34000	
138	0	33620	
139	0	33720	
140	0	34008	
141	0	33884	
142	0	33496	
143	0	33080	
144	0	32560	
145	0	32008	
146	0	31448	
147	0	31100	
148	0	31212	
149	0	31968	
150	0	33132	
151	0	34154	
152	0	34752	
153	0	35138	
154	0	35432	
155	0	35372	
156	0	34980	
157	0	34224	
158	0	33208	
159	0	32648	
160	0	32512	
161	0	32520	
162	0	32548	
163	0	32588	
164	0	32532	
165	0	32316	
166	0	32032	
167	0	31612	
168	0	31080	
169	0	31124	
170	0	31816	
171	0	32768	
172	0	33396	
173	0	33676	
174	0	33674	
175	0	33332	
176	0	32760	
177	0	32144	
178	0	31516	
179	0	31416	
180	0	31828	
181	0	32276	
182	0	32432	
183	0	32280	
184	0	31864	
185	0	31328	
186	0	30860	
187	0	30428	
188	0	30036	
189	0	30044	
190	0	30252	
191	0	30528	
192	0	30784	
193	0	30957	
194	0	31052	
195	0	31184	
196	0	31576	
197	0	32080	
198	0	32476	
199	0	32916	
200	0	33308	
201	0	33432	
202	0	33196	
203	0	32860	
204	0	32396	
205	0	31636	
206	0	30820	
207	0	30016	
208	0	29468	
209	0	29600	
210	0	30268	
211	0	31212	
212	0	32148	
213	0	32826	
214	0	33192	
215	0	33148	
216	0	32748	
217	0	32072	
218	0	31196	
219	0	30600	
220	0	30384	
221	0	30404	
222	0	30437	
223	0	30380	
224	0	30124	
225	0	29698	
226	0	29420	
227	0	29088	
228	0	28756	
229	0	29076	
230	0	30152	
231	0	31444	
232	0	32660	
233	0	33680	
234	0	34168	
235	0	34040	
236	0	33252	
237	0	31764	
238	0	30128	
239	0	29150	
240	0	29028	
241	0	29520	
242	0	30404	
243	0	31164	
244	0	31516	
245	0	31664	
246	0	31184	
247	0	30178	
248	0	29144	
249	0	28784	
250	0	29372	
251	0	30540	
252	0	31809	
253	0	32796	
254	0	33368	
255	0	33340	
256	0	32808	
257	0	31756	
258	0	30608	
259	0	30176	
260	0	30596	
261	0	31272	
262	0	31962	
263	0	32484	
264	0	32438	
265	0	31676	
266	0	30846	
267	0	30392	
268	0	30488	
269	0	31232	
270	0	32376	
271	0	33632	
272	0	34626	
273	0	35220	
274	0	35396	
275	0	35112	
276	0	34592	
277	0	33984	
278	0	33290	
279	0	33128	
280	0	33376	
281	0	33504	
282	0	33280	
283	0	32768	
284	0	32042	
285	0	31100	
286	0	30060	
287	0	28912	
288	0	27960	
289	0	27748	
290	0	28400	
291	0	29428	
292	0	30464	
293	0	31516	
294	0	32544	
295	0	33364	
296	0	33752	
297	0	33630	
298	0	33156	
299	0	33068	
300	0	33520	
301	0	34064	
302	0	34336	
303	0	34252	
304	0	33776	
305	0	32762	
306	0	31728	
307	0	30808	
308	0	30004	
309	0	30032	
310	0	30784	
311	0	31768	
312	0	32408	
313	0	32568	
314	0	32480	
315	0	32084	
316	0	31760	
317	0	31588	
318	0	31308	
319	0	31320	
320	0	31816	
321	0	32144	
322	0	32184	
323	0	31820	
324	0	31272	
325	0	31032	
326	0	31232	
327	0	31496	
328	0	31394	
329	0	31840	
330	0	32968	
331	0	34440	
332	0	35768	
333	0	36764	
334	0	37432	
335	0	37472	
336	0	37028	
337	0	36312	
338	0	35404	
339	0	34808	
340	0	34560	
341	0	34236	
342	0	33690	
343	0	32904	
344	0	32000	
345	0	31016	
346	0	30088	
347	0	29424	
348	0	29288	
349	0	30008	
350	0	31264	
351	0	32496	
352	0	33496	
353	0	34224	
354	0	34656	
355	0	34676	
356	0	34288	
357	0	33608	
358	0	32828	
359	0	32472	
360	0	32668	
361	0	32964	
362	0	32980	
363	0	32740	
364	0	32224	
365	0	31504	
366	0	30812	
367	0	30176	
368	0	29600	
369	0	29610	
370	0	30218	
371	0	31092	
372	0	31916	
373	0	32496	
374	0	32864	
375	0	33028	
376	0	32936	
377	0	32502	
378	0	32170	
379	0	32260	
380	0	32554	
381	0	32716	
382	0	32640	
383	0	32242	
384	0	31568	
385	0	30524	
386	0	29476	
387	0	28880	
388	0	28812	
389	0	29580	
390	0	30816	
391	0	32120	
392	0	33160	
393	0	33872	
394	0	34168	
395	0	34148	
396	0	33868	
397	0	33124	
398	0	32156	
399	0	31408	
400	0	30996	
401	0	30860	
402	0	30860	
403	0	30820	
404	0	30724	
405	0	30626	
406	0	30492	
407	0	30124	
408	0	29570	
409	0	29568	
410	0	30264	
411	0	31412	
412	0	32582	
413	0	33548	
414	0	34352	
415	0	34780	
416	0	34992	
417	0	34968	
418	0	34696	
419	0	34624	
420	0	35064	
421	0	35600	
422	0	35784	
423	0	35560	
424	0	34940	
425	0	34116	
426	0	33204	
427	0	32084	
428	0	30912	
429	0	30408	
430	0	30964	
431	0	31944	
432	0	32740	
433	0	33384	
434	0	33964	
435	0	34270	
436	0	34544	
437	0	34688	
438	0	34376	
439	0	34120	
440	0	34152	
441	0	34178	
442	0	33972	
443	0	33688	
444	0	33192	
445	0	32420	
446	0	31500	
447	0	30492	
448	0	29646	
449	0	29632	
450	0	30676	
451	0	32152	
452	0	33732	
453	0	34888	
454	0	35476	
455	0	35628	
456	0	35448	
457	0	34848	
458	0	34032	
459	0	33480	
460	0	33272	
461	0	33136	
462	0	32992	
463	0	32892	
464	0	32684	
465	0	32204	
466	0	31536	
467	0	30948	
468	0	30418	
469	0	30348	
470	0	30928	
471	0	31704	
472	0	32572	
473	0	33456	
474	0	34304	
475	0	34736	
476	0	34644	
477	0	34140	
478	0	33216	
479	0	32420	
480	0	32344	
481	0	32564	
482	0	32544	
483	0	32076	
484	0	31132	
485	0	29996	
486	0	28912	
487	0	27804	
488	0	26688	
489	0	26088	
490	0	26890	
491	0	29068	
492	0	31792	
493	0	34040	
494	0	35668	
495	0	36544	
496	0	36604	
497	0	36240	
498	0	35720	
499	0	35668	
500	0	36140	
501	0	36496	
502	0	36488	
503	0	36148	
504	0	35380	
505	0	34308	
506	0	33160	
507	0	32108	
508	0	31364	
509	0	31418	
510	0	32320	
511	0	33520	
512	0	34564	
513	0	35322	
514	0	35776	
515	0	36052	
516	0	36268	
517	0	36104	
518	0	35404	
519	0	34752	
520	0	34512	
521	0	34492	
522	0	34572	
523	0	34684	
524	0	34572	
525	0	34068	
526	0	33544	
527	0	33016	
528	0	32328	
529	0	32040	
530	0	32580	
531	0	33664	
532	0	34844	
533	0	36160	
534	0	37404	
535	0	38172	
536	0	38236	
537	0	37636	
538	0	36656	
539	0	35828	
540	0	35552	
541	0	35660	
542	0	35840	
543	0	35864	
544	0	35504	
545	0	34696	
546	0	33752	
547	0	32688	
548	0	31792	
549	0	31796	
550	0	32760	
551	0	34252	
552	0	36008	
553	0	37724	
554	0	38984	
555	0	39452	
556	0	39180	
557	0	38240	
558	0	36860	
559	0	35676	
560	0	35160	
561	0	34904	
562	0	34448	
563	0	33944	
564	0	33550	
565	0	33136	
566	0	32472	
567	0	31232	
568	0	29704	
569	0	28648	
570	0	28852	
571	0	29856	
572	0	31008	
573	0	31881	
574	0	32220	
575	0	31844	
576	0	31200	
577	0	30580	
578	0	30204	
579	0	30528	
580	0	31862	
581	0	33472	
582	0	34380	
583	0	34384	
584	0	33728	
585	0	32520	
586	0	31304	
587	0	30268	
588	0	29400	
589	0	29168	
590	0	29852	
591	0	30976	
592	0	32232	
593	0	33304	
594	0	34036	
595	0	34268	
596	0	33932	
597	0	33116	
598	0	31880	
599	0	30938	
600	0	30728	
601	0	30868	
602	0	30980	
603	0	31136	
604	0	31228	
605	0	30972	
606	0	30336	
607	0	29448	
608	0	28565	
609	0	28500	
610	0	29416	
611	0	30688	
612	0	31874	
613	0	32708	
614	0	33184	
615	0	33292	
616	0	33100	
617	0	32620	
618	0	31874	
619	0	31410	
620	0	31520	
621	0	31874	
622	0	32032	
623	0	31968	
624	0	31640	
625	0	30884	
626	0	30012	
627	0	29308	
628	0	28712	
629	0	28480	
630	0	29096	
631	0	30400	
632	0	31920	
633	0	33396	
634	0	34224	
635	0	34288	
636	0	33960	
637	0	33428	
638	0	32784	
639	0	32512	
640	0	32928	
641	0	33336	
642	0	33004	
643	0	32372	
644	0	31940	
645	0	31744	
646	0	31632	
647	0	31740	
648	0	31940	
649	0	32260	
650	0	33344	
651	0	35252	
652	0	37508	
653	0	39440	
654	0	40712	
655	0	41888	
656	0	43212	
657	0	44504	
658	0	45228	
659	0	45708	
660	0	46396	
661	0	47280	
662	0	47896	
663	0	48112	
664	0	47664	
665	0	46748	
666	0	45668	
667	0	44248	
668	0	42724	
669	0	41836	
670	0	41912	
671	0	42468	
672	0	43136	
673	0	44064	
674	0	44812	
675	0	44912	
676	0	44320	
677	0	43288	
678	0	41888	
679	0	40664	
680	0	40122	
681	0	39892	
682	0	39480	
683	0	38836	
684	0	37924	
685	0	36712	
686	0	35412	
687	0	34256	
688	0	33264	
689	0	32920	
690	0	33464	
691	0	34348	
692	0	35104	
693	0	35504	
694	0	35656	
695	0	35400	
696	0	34672	
697	0	33560	
698	0	32316	
699	0	31508	
700	0	31452	
701	0	31852	
702	0	31904	
703	0	31592	
704	0	30948	
705	0	30064	
706	0	29024	
707	0	28080	
708	0	27472	
709	0	27404	
710	0	28092	
711	0	29108	
712	0	30008	
713	0	30464	
714	0	30342	
715	0	29824	
716	0	29204	
717	0	28472	
718	0	27565	
719	0	27172	
720	0	27804	
721	0	29046	
722	0	30140	
723	0	30632	
724	0	30320	
725	0	29256	
726	0	27992	
727	0	27028	
728	0	26328	
729	0	26096	
730	0	26632	
731	0	27644	
732	0	28764	
733	0	29676	
734	0	30400	
735	0	31084	
736	0	31580	
737	0	31660	
738	0	31300	
739	0	31048	
740	0	31424	
741	0	32016	
742	0	32384	
743	0	32376	
744	0	32002	
745	0	31224	
746	0	30164	
747	0	29044	
748	0	27984	
749	0	27408	
750	0	27576	
751	0	28308	
752	0	29392	
753	0	30488	
754	0	31300	
755	0	31672	
756	0	31612	
757	0	31216	
758	0	30764	
759	0	30720	
760	0	31220	
761	0	31820	
762	0	32112	
763	0	32124	
764	0	31760	
765	0	31044	
766	0	30192	
767	0	29364	
768	0	28564	
769	0	28200	
770	0	28620	
771	0	29616	
772	0	30720	
773	0	31672	
774	0	32396	
775	0	32696	
776	0	32584	
777	0	32064	
778	0	31146	
779	0	30248	
780	0	29900	
781	0	29868	
782	0	29866	
783	0	30104	
784	0	30488	
785	0	30444	
786	0	29904	
787	0	29152	
788	0	28178	
789	0	27536	
790	0	27832	
791	0	29032	
792	0	30528	
793	0	31752	
794	0	32516	
795	0	32936	
796	0	33060	
797	0	32740	
798	0	31962	
799	0	31378	
800	0	31448	
801	0	31776	
802	0	31900	
803	0	31756	
804	0	31376	
805	0	30724	
806	0	30000	
807	0	29268	
808	0	28652	
809	0	28440	
810	0	28832	
811	0	29546	
812	0	30080	
813	0	30496	
814	0	30864	
815	0	31238	
816	0	31384	
817	0	31440	
818	0	31316	
819	0	31124	
820	0	31250	
821	0	31696	
822	0	32146	
823	0	32384	
824	0	32260	
825	0	31772	
826	0	30992	
827	0	30016	
828	0	29076	
829	0	28572	
830	0	28884	
831	0	29808	
832	0	30960	
833	0	32064	
834	0	32784	
835	0	33180	
836	0	33053	
837	0	32492	
838	0	31896	
839	0	31552	
840	0	31884	
841	0	32748	
842	0	33468	
843	0	33672	
844	0	33396	
845	0	32744	
846	0	32056	
847	0	31608	
848	0	31180	
849	0	31200	
850	0	32110	
851	0	33410	
852	0	34516	
853	0	35332	
854	0	35868	
855	0	36104	
856	0	35932	
857	0	35432	
858	0	34800	
859	0	34280	
860	0	34276	
861	0	34612	
862	0	34700	
863	0	34552	
864	0	34288	
865	0	33892	
866	0	33160	
867	0	32002	
868	0	30580	
869	0	29468	
870	0	29284	
871	0	29924	
872	0	31368	
873	0	33468	
874	0	35272	
875	0	36264	
876	0	36772	
877	0	36896	
878	0	36408	
879	0	35724	
880	0	35408	
881	0	35352	
882	0	35440	
883	0	35580	
884	0	35496	
885	0	34900	
886	0	33876	
887	0	32624	
888	0	31344	
889	0	30492	
890	0	30468	
891	0	31256	
892	0	32456	
893	0	33624	
894	0	34384	
895	0	34532	
896	0	34216	
897	0	33692	
898	0	32996	
899	0	32336	
900	0	32492	
901	0	33228	
902	0	33940	
903	0	34288	
904	0	33932	
905	0	32732	
906	0	31072	
907	0	29304	
908	0	27868	
909	0	27374	
910	0	28238	
911	0	30328	
912	0	32748	
913	0	34760	
914	0	35944	
915	0	36349	
916	0	36188	
917	0	35856	
918	0	35536	
919	0	35232	
920	0	35290	
921	0	35592	
922	0	35760	
923	0	35732	
924	0	35440	
925	0	34780	
926	0	33866	
927	0	33044	
928	0	32528	
929	0	32376	
930	0	32944	
931	0	33952	
932	0	35036	
933	0	36096	
934	0	36964	
935	0	37344	
936	0	37176	
937	0	36552	
938	0	35728	
939	0	34988	
940	0	34680	
941	0	34572	
942	0	34176	
943	0	33144	
944	0	31720	
945	0	30332	
946	0	29404	
947	0	28568	
948	0	27914	
949	0	28192	
950	0	29578	
951	0	31164	
952	0	32594	
953	0	33752	
954	0	34464	
955	0	34540	
956	0	34140	
957	0	33480	
958	0	32532	
959	0	31724	
960	0	31704	
961	0	32012	
962	0	32168	
963	0	32172	
964	0	31788	
965	0	30884	
966	0	29708	
967	0	28528	
968	0	27468	
969	0	26832	
970	0	27076	
971	0	27888	
972	0	29045	
973	0	30236	
974	0	31144	
975	0	31556	
976	0	31404	
977	0	30844	
978	0	30028	
979	0	29120	
980	0	28816	
981	0	29116	
982	0	29520	
983	0	29828	
984	0	30176	
985	0	30784	
986	0	30892	
987	0	30240	
988	0	29180	
989	0	28410	
990	0	28604	
991	0	29614	
992	0	30764	
993	0	31688	
994	0	32256	
995	0	32341	
996	0	31968	
997	0	31360	
998	0	30672	
999	0	30200	
1000	0	30428	
1001	0	31208	
1002	0	31996	
1003	0	32490	
1004	0	32476	
1005	0	31952	
1006	0	30912	
1007	0	29554	
1008	0	28264	
1009	0	27456	
1010	0	27560	
1011	0	28332	
1012	0	29552	
1013	0	30712	
1014	0	31240	
1015	0	30848	
1016	0	29940	
1017	0	29216	
1018	0	28652	
1019	0	28352	
1020	0	28586	
1021	0	29112	
1022	0	29244	
1023	0	29212	
1024	0	29204	
1025	0	29052	
1026	0	28640	
1027	0	28308	
1028	0	28472	
1029	0	29008	
1030	0	29904	
1031	0	31044	
1032	0	32196	
1033	0	33232	
1034	0	33928	
1035	0	33944	
1036	0	33284	
1037	0	32328	
1038	0	31216	
1039	0	30088	
1040	0	29608	
1041	0	29808	
1042	0	30084	
1043	0	30408	
1044	0	30376	
1045	0	29744	
1046	0	28676	
1047	0	27344	
1048	0	26000	
1049	0	25168	
1050	0	25308	
1051	0	26282	
1052	0	27444	
1053	0	28460	
1054	0	29224	
1055	0	29724	
1056	0	29808	
1057	0	29448	
1058	0	28756	
1059	0	28192	
1060	0	28384	
1061	0	28840	
1062	0	29056	
1063	0	28976	
1064	0	28656	
1065	0	28184	
1066	0	27432	
1067	0	26728	
1068	0	26136	
1069	0	25592	
1070	0	25528	
1071	0	26180	
1072	0	27033	
1073	0	27836	
1074	0	28564	
1075	0	29172	
1076	0	29338	
1077	0	29088	
1078	0	28616	
1079	0	27860	
1080	0	27684	
1081	0	28264	
1082	0	29138	
1083	0	30136	
1084	0	30564	
1085	0	30204	
1086	0	29544	
1087	0	29188	
1088	0	29060	
1089	0	29164	
1090	0	29956	
1091	0	31360	
1092	0	32912	
1093	0	34404	
1094	0	35672	
1095	0	36496	
1096	0	36632	
1097	0	36376	
1098	0	35852	
1099	0	35456	
1100	0	35824	
1101	0	36660	
1102	0	37272	
1103	0	37624	
1104	0	37632	
1105	0	37320	
1106	0	36564	
1107	0	35636	
1108	0	34812	
1109	0	34194	
1110	0	34504	
1111	0	35896	
1112	0	37780	
1113	0	39328	
1114	0	40524	
1115	0	41688	
1116	0	42392	
1117	0	42328	
1118	0	41636	
1119	0	40824	
1120	0	40608	
1121	0	40888	
1122	0	41050	
1123	0	40936	
1124	0	40528	
1125	0	39844	
1126	0	38932	
1127	0	37976	
1128	0	36860	
1129	0	35828	
1130	0	35648	
1131	0	36264	
1132	0	37380	
1133	0	38440	
1134	0	39128	
1135	0	39208	
1136	0	38544	
1137	0	37522	
1138	0	36264	
1139	0	34960	
1140	0	34730	
1141	0	35556	
1142	0	36456	
1143	0	36756	
1144	0	36460	
1145	0	35592	
1146	0	34282	
1147	0	32800	
1148	0	31312	
1149	0	30344	
1150	0	30476	
1151	0	31552	
1152	0	33152	
1153	0	34624	
1154	0	35576	
1155	0	36080	
1156	0	36132	
1157	0	35868	
1158	0	35226	
1159	0	34304	
1160	0	33892	
1161	0	33936	
1162	0	33628	
1163	0	32944	
1164	0	32344	
1165	0	31564	
1166	0	30392	
1167	0	29213	
1168	0	28224	
1169	0	27652	
1170	0	28040	
1171	0	29420	
1172	0	31252	
1173	0	33096	
1174	0	34602	
1175	0	35600	
1176	0	35936	
1177	0	35776	
1178	0	35248	
1179	0	34388	
1180	0	34024	
1181	0	34248	
1182	0	34160	
1183	0	33440	
1184	0	32488	
1185	0	31460	
1186	0	30248	
1187	0	29096	
1188	0	28560	
1189	0	28672	
1190	0	29344	
1191	0	30704	
1192	0	32312	
1193	0	33861	
1194	0	34804	
1195	0	35184	
1196	0	35138	
1197	0	34906	
1198	0	34744	
1199	0	34512	
1200	0	34792	
1201	0	35644	
1202	0	36296	
1203	0	36558	
1204	0	36308	
1205	0	35452	
1206	0	34060	
1207	0	32544	
1208	0	31156	
1209	0	30080	
1210	0	29684	
1211	0	29968	
1212	0	30880	
1213	0	31856	
1214	0	32464	
1215	0	32688	
1216	0	32620	
1217	0	32324	
1218	0	31798	
1219	0	31352	
1220	0	32058	
1221	0	33484	
1222	0	34648	
1223	0	35020	
1224	0	34788	
1225	0	34044	
1226	0	32892	
1227	0	31872	
1228	0	31440	
1229	0	31532	
1230	0	32320	
1231	0	33600	
1232	0	34776	
1233	0	35786	
1234	0	36404	
1235	0	36872	
1236	0	37092	
1237	0	36904	
1238	0	36348	
1239	0	35680	
1240	0	35624	
1241	0	36080	
1242	0	36636	
1243	0	36700	
1244	0	36296	
1245	0	35644	
1246	0	34796	
1247	0	33852	
1248	0	32888	
1249	0	32284	
1250	0	32792	
1251	0	34220	
1252	0	35640	
1253	0	36852	
1254	0	37592	
1255	0	37720	
1256	0	37256	
1257	0	36492	
1258	0	35480	
1259	0	34116	
1260	0	33280	
1261	0	33012	
1262	0	32876	
1263	0	32492	
1264	0	31786	
1265	0	31000	
1266	0	30020	
1267	0	29132	
1268	0	28440	
1269	0	27780	
1270	0	27872	
1271	0	28688	
1272	0	29773	
1273	0	30900	
1274	0	31888	
1275	0	32708	
1276	0	33088	
1277	0	32904	
1278	0	32216	
1279	0	31292	
1280	0	30904	
1281	0	31020	
1282	0	31232	
1283	0	31252	
1284	0	30864	
1285	0	30028	
1286	0	28720	
1287	0	27264	
1288	0	26032	
1289	0	25000	
1290	0	24660	
1291	0	25332	
1292	0	26432	
1293	0	27508	
1294	0	28176	
1295	0	28642	
1296	0	29168	
1297	0	29580	
1298	0	29344	
1299	0	28544	
1300	0	27994	
1301	0	28088	
1302	0	28304	
1303	0	28424	
1304	0	28356	
1305	0	27896	
1306	0	27160	
1307	0	26320	
1308	0	25340	
1309	0	24552	
1310	0	24516	
1311	0	25268	
1312	0	26328	
1313	0	27316	
1314	0	28144	
1315	0	28660	
1316	0	28732	
1317	0	28554	
1318	0	28120	
1319	0	27528	
1320	0	27200	
1321	0	27492	
1322	0	27932	
1323	0	28088	
1324	0	27988	
1325	0	27536	
1326	0	26576	
1327	0	25266	
1328	0	23940	
1329	0	22968	
1330	0	22898	
1331	0	24028	
1332	0	25680	
1333	0	27260	
1334	0	28502	
1335	0	29368	
1336	0	29628	
1337	0	29232	
1338	0	28772	
1339	0	28804	
1340	0	29668	
1341	0	30904	
1342	0	31896	
1343	0	32648	
1344	0	33012	
1345	0	32768	
1346	0	31800	
1347	0	30538	
1348	0	29398	
1349	0	28796	
1350	0	29764	
1351	0	31516	
1352	0	33128	
1353	0	34256	
1354	0	34968	
1355	0	35480	
1356	0	35648	
1357	0	35556	
1358	0	35512	
1359	0	35584	
1360	0	36084	
1361	0	37220	
1362	0	38706	
1363	0	40092	
1364	0	40976	
1365	0	41320	
1366	0	41224	
1367	0	40864	
1368	0	40388	
1369	0	39956	
1370	0	40164	
1371	0	41092	
1372	0	42160	
1373	0	43256	
1374	0	44200	
1375	0	44768	
1376	0	44916	
1377	0	44768	
1378	0	44356	
1379	0	43816	
1380	0	43700	
1381	0	44032	
1382	0	44280	
1383	0	44256	
1384	0	44048	
1385	0	43452	
1386	0	42232	
1387	0	40752	
1388	0	39264	
1389	0	37864	
1390	0	37024	
1391	0	37020	
1392	0	37768	
1393	0	39084	
1394	0	40500	
1395	0	41944	
1396	0	43000	
1397	0	43328	
1398	0	43096	
1399	0	42488	
1400	0	42000	
1401	0	41760	
1402	0	41508	
1403	0	40864	
1404	0	39904	
1405	0	38712	
1406	0	37472	
1407	0	36520	
1408	0	35656	
1409	0	34720	
1410	0	34400	
1411	0	34888	
1412	0	35904	
1413	0	37156	
1414	0	38100	
1415	0	38464	
1416	0	38584	
1417	0	38544	
1418	0	38188	
1419	0	37538	
1420	0	37120	
1421	0	37184	
1422	0	37208	
1423	0	37064	
1424	0	36712	
1425	0	36380	
1426	0	35924	
1427	0	35240	
1428	0	34560	
1429	0	34316	
1430	0	34920	
1431	0	35968	
1432	0	36996	
1433	0	37752	
1434	0	38132	
1435	0	38284	
1436	0	38216	
1437	0	37740	
1438	0	36960	
1439	0	36080	
1440	0	35452	
1441	0	35128	
1442	0	34968	
1443	0	34840	
1444	0	34684	
1445	0	34306	
1446	0	33540	
1447	0	32780	
1448	0	31980	
1449	0	30860	
1450	0	30132	
1451	0	29988	
1452	0	30384	
1453	0	31112	
1454	0	32004	
1455	0	33264	
1456	0	34320	
1457	0	34928	
1458	0	35116	
1459	0	34612	
1460	0	34010	
1461	0	33924	
1462	0	34040	
1463	0	33948	
1464	0	33868	
1465	0	33568	
1466	0	32837	
1467	0	31976	
1468	0	31076	
1469	0	30400	
1470	0	30572	
1471	0	31464	
1472	0	32680	
1473	0	33816	
1474	0	34640	
1475	0	35152	
1476	0	35148	
1477	0	34792	
1478	0	34292	
1479	0	33704	
1480	0	33656	
1481	0	34248	
1482	0	35120	
1483	0	36020	
1484	0	36708	
1485	0	37188	
1486	0	37268	
1487	0	36928	
1488	0	36500	
1489	0	36168	
1490	0	36408	
1491	0	37116	
1492	0	38080	
1493	0	39128	
1494	0	39928	
1495	0	40576	
1496	0	41144	
1497	0	41688	
1498	0	41988	
1499	0	41940	
1500	0	42164	
1501	0	42604	
1502	0	42616	
1503	0	42168	
1504	0	41348	
1505	0	40420	
1506	0	39212	
1507	0	37952	
1508	0	36871	
1509	0	36072	
1510	0	35936	
1511	0	36416	
1512	0	36992	
1513	0	37568	
1514	0	38012	
1515	0	38232	
1516	0	38180	
1517	0	37872	
1518	0	37280	
1519	0	36536	
1520	0	35960	
1521	0	35768	
1522	0	35740	
1523	0	35696	
1524	0	35476	
1525	0	34860	
1526	0	33812	
1527	0	32536	
1528	0	31292	
1529	0	30200	
1530	0	29560	
1531	0	29844	
1532	0	30812	
1533	0	31944	
1534	0	32864	
1535	0	33400	
1536	0	33444	
1537	0	33024	
1538	0	32328	
1539	0	31592	
1540	0	31088	
1541	0	30948	
1542	0	31016	
1543	0	31156	
1544	0	31132	
1545	0	30836	
1546	0	30552	
1547	0	30132	
1548	0	29508	
1549	0	29008	
1550	0	29045	
1551	0	29648	
1552	0	30412	
1553	0	31034	
1554	0	31392	
1555	0	31520	
1556	0	31392	
1557	0	31252	
1558	0	31424	
1559	0	31336	
1560	0	31008	
1561	0	31132	
1562	0	31288	
1563	0	31152	
1564	0	31002	
1565	0	30744	
1566	0	30180	
1567	0	29568	
1568	0	29016	
1569	0	28672	
1570	0	28800	
1571	0	29452	
1572	0	30352	
1573	0	31064	
1574	0	31560	
1575	0	31896	
1576	0	31896	
1577	0	31500	
1578	0	30796	
1579	0	30012	
1580	0	29540	
1581	0	29692	
1582	0	30064	
1583	0	30400	
1584	0	30496	
1585	0	30160	
1586	0	29576	
1587	0	28960	
1588	0	28280	
1589	0	27704	
1590	0	27766	
1591	0	28548	
1592	0	29664	
1593	0	30604	
1594	0	31312	
1595	0	31744	
1596	0	31884	
1597	0	31648	
1598	0	31124	
1599	0	30464	
1600	0	30112	
1601	0	30268	
1602	0	30624	
1603	0	30776	
1604	0	30620	
1605	0	30074	
1606	0	29148	
1607	0	28156	
1608	0	27284	
1609	0	26632	
1610	0	26628	
1611	0	27410	
1612	0	28748	
1613	0	30020	
1614	0	30624	
1615	0	30768	
1616	0	30812	
1617	0	30914	
1618	0	30852	
1619	0	30596	
1620	0	30356	
1621	0	30504	
1622	0	30732	
1623	0	30652	
1624	0	30194	
1625	0	29584	
1626	0	28868	
1627	0	28096	
1628	0	27412	
1629	0	26880	
1630	0	26800	
1631	0	27528	
1632	0	28768	
1633	0	30048	
1634	0	30896	
1635	0	31312	
1636	0	31504	
1637	0	31440	
1638	0	31112	
1639	0	30552	
1640	0	30016	
1641	0	29928	
1642	0	30192	
1643	0	30440	
1644	0	30464	
1645	0	30144	
1646	0	29216	
1647	0	28032	
1648	0	27072	
1649	0	26586	
1650	0	26772	
1651	0	27712	
1652	0	29172	
1653	0	30872	
1654	0	32368	
1655	0	33340	
1656	0	33696	
1657	0	33472	
1658	0	32732	
1659	0	31832	
1660	0	31496	
1661	0	31998	
1662	0	32920	
1663	0	33836	
1664	0	34496	
1665	0	34692	
1666	0	34252	
1667	0	33488	
1668	0	32448	
1669	0	31320	
1670	0	30840	
1671	0	31420	
1672	0	32840	
1673	0	34876	
1674	0	36968	
1675	0	38714	
1676	0	39564	
1677	0	39796	
1678	0	39916	
1679	0	39964	
1680	0	40004	
1681	0	40520	
1682	0	41240	
1683	0	41976	
1684	0	42554	
1685	0	42576	
1686	0	41952	
1687	0	41052	
1688	0	40280	
1689	0	39592	
1690	0	39480	
1691	0	40356	
1692	0	41852	
1693	0	43112	
1694	0	44324	
1695	0	45528	
1696	0	46400	
1697	0	46876	
1698	0	46898	
1699	0	46372	
1700	0	45716	
1701	0	45352	
1702	0	45056	
1703	0	44584	
1704	0	44056	
1705	0	43132	
1706	0	41764	
1707	0	40272	
1708	0	38800	
1709	0	37344	
1710	0	36284	
1711	0	36196	
1712	0	36632	
1713	0	37048	
1714	0	37276	
1715	0	37236	
1716	0	36784	
1717	0	36264	
1718	0	35784	
1719	0	35116	
1720	0	34568	
1721	0	34602	
1722	0	34912	
1723	0	34840	
1724	0	34406	
1725	0	33684	
1726	0	32601	
1727	0	31292	
1728	0	29928	
1729	0	28500	
1730	0	26880	
1731	0	25496	
1732	0	24976	
1733	0	25044	
1734	0	25112	
1735	0	24928	
1736	0	24424	
1737	0	23780	
1738	0	23330	
1739	0	23200	
1740	0	23618	
1741	0	24600	
1742	0	25504	
1743	0	26152	
1744	0	26580	
1745	0	26722	
1746	0	26720	
1747	0	26296	
1748	0	25392	
1749	0	24564	
1750	0	24072	
1751	0	24244	
1752	0	24900	
1753	0	26108	
1754	0	27608	
1755	0	28904	
1756	0	29709	
1757	0	29924	
1758	0	29756	
1759	0	29292	
1760	0	28680	
1761	0	28448	
1762	0	28632	
1763	0	28644	
1764	0	28320	
1765	0	27640	
1766	0	26632	
1767	0	25312	
1768	0	23916	
1769	0	22376	
1770	0	21192	
1771	0	20976	
1772	0	21372	
1773	0	21960	
1774	0	23068	
1775	0	24628	
1776	0	26002	
1777	0	27052	
1778	0	28008	
1779	0	28694	
1780	0	29268	
1781	0	29824	
1782	0	30100	
1783	0	30002	
1784	0	29552	
1785	0	28832	
1786	0	28072	
1787	0	27336	
1788	0	26624	
1789	0	25912	
1790	0	25593	
1791	0	25968	
1792	0	26740	
1793	0	27640	
1794	0	28472	
1795	0	29060	
1796	0	29098	
1797	0	28740	
1798	0	28300	
1799	0	27724	
1800	0	27214	
1801	0	27216	
1802	0	27876	
1803	0	28664	
1804	0	28864	
1805	0	28468	
1806	0	27968	
1807	0	27588	
1808	0	27182	
1809	0	26580	
1810	0	26396	
1811	0	27106	
1812	0	28102	
1813	0	29096	
1814	0	30132	
1815	0	31160	
1816	0	31972	
1817	0	32448	
1818	0	32728	
1819	0	32508	
1820	0	31942	
1821	0	31848	
1822	0	32136	
1823	0	32252	
1824	0	32156	
1825	0	31896	
1826	0	31352	
1827	0	30536	
1828	0	29562	
1829	0	28496	
1830	0	27348	
1831	0	26630	
1832	0	26560	
1833	0	26892	
1834	0	26936	
1835	0	27072	
1836	0	27924	
1837	0	29144	
1838	0	30240	
1839	0	31312	
1840	0	32192	
1841	0	33200	
1842	0	34008	
1843	0	34316	
1844	0	34272	
1845	0	33984	
1846	0	33528	
1847	0	32968	
1848	0	32396	
1849	0	32032	
1850	0	32216	
1851	0	33184	
1852	0	34452	
1853	0	35456	
1854	0	36008	
1855	0	36344	
1856	0	36432	
1857	0	36164	
1858	0	35648	
1859	0	34932	
1860	0	34164	
1861	0	33728	
1862	0	33648	
1863	0	33600	
1864	0	33452	
1865	0	33220	
1866	0	32920	
1867	0	32380	
1868	0	31676	
1869	0	30928	
1870	0	30594	
1871	0	31128	
1872	0	31944	
1873	0	32904	
1874	0	33584	
1875	0	33756	
1876	0	33672	
1877	0	33756	
1878	0	33964	
1879	0	34124	
1880	0	34388	
1881	0	34800	
1882	0	35196	
1883	0	35460	
1884	0	35356	
1885	0	34828	
1886	0	34132	
1887	0	33522	
1888	0	32978	
1889	0	32572	
1890	0	32560	
1891	0	33092	
1892	0	33960	
1893	0	34836	
1894	0	35388	
1895	0	35480	
1896	0	35196	
1897	0	34664	
1898	0	34164	
1899	0	33792	
1900	0	33492	
1901	0	33336	
1902	0	33120	
1903	0	32772	
1904	0	32920	
1905	0	33556	
1906	0	33828	
1907	0	33764	
1908	0	33764	
1909	0	33792	
1910	0	34072	
1911	0	34920	
1912	0	36298	
1913	0	37604	
1914	0	38676	
1915	0	39472	
1916	0	40032	
1917	0	39956	
1918	0	39312	
1919	0	38344	
1920	0	37428	
1921	0	37156	
1922	0	37384	
1923	0	37568	
1924	0	37796	
1925	0	37540	
1926	0	36800	
1927	0	35600	
1928	0	33912	
1929	0	31996	
1930	0	30352	
1931	0	29480	
1932	0	29564	
1933	0	30328	
1934	0	31096	
1935	0	31668	
1936	0	32260	
1937	0	33244	
1938	0	34260	
1939	0	35216	
1940	0	36212	
1941	0	37512	
1942	0	38768	
1943	0	39808	
1944	0	40372	
1945	0	40388	
1946	0	39968	
1947	0	39192	
1948	0	38176	
1949	0	37272	
1950	0	36624	
1951	0	36456	
1952	0	36608	
1953	0	37044	
1954	0	37392	
1955	0	37464	
1956	0	37276	
1957	0	36852	
1958	0	36320	
1959	0	35728	
1960	0	35096	
1961	0	34896	
1962	0	35032	
1963	0	35196	
1964	0	35468	
1965	0	35512	
1966	0	35212	
1967	0	34664	
1968	0	34108	
1969	0	33640	
1970	0	33424	
1971	0	33672	
1972	0	34240	
1973	0	34932	
1974	0	35416	
1975	0	35556	
1976	0	35328	
1977	0	34932	
1978	0	34696	
1979	0	34538	
1980	0	34444	
1981	0	34616	
1982	0	35060	
1983	0	35400	
1984	0	35564	
1985	0	35332	
1986	0	34712	
1987	0	33838	
1988	0	33024	
1989	0	32394	
1990	0	32172	
1991	0	32628	
1992	0	33624	
1993	0	34648	
1994	0	35312	
1995	0	35796	
1996	0	36084	
1997	0	35962	
1998	0	35568	
1999	0	34560	
2000	0	33228	
2001	0	32460	
2002	0	32148	
2003	0	31652	
2004	0	30904	
2005	0	30256	
2006	0	29932	
2007	0	29776	
2008	0	30048	
2009	0	30584	
2010	0	31472	
2011	0	32912	
2012	0	34604	
2013	0	36080	
2014	0	37020	
2015	0	37712	
2016	0	38284	
2017	0	38224	
2018	0	37804	
2019	0	37072	
2020	0	36464	
2021	0	36352	
2022	0	36312	
2023	0	36144	
2024	0	35788	
2025	0	35264	
2026	0	34516	
2027	0	33492	
2028	0	32332	
2029	0	31160	
2030	0	30300	
2031	0	29936	
2032	0	29720	
2033	0	29292	
2034	0	28880	
2035	0	28808	
2036	0	29412	
2037	0	30280	
2038	0	31296	
2039	0	32536	
2040	0	33824	
2041	0	35744	
2042	0	37708	
2043	0	38904	
2044	0	39216	
2045	0	39112	
2046	0	38700	
2047	0	38052	
2048	0	37400	
2049	0	36680	
2050	0	35984	
2051	0	35576	
2052	0	35448	
2053	0	35272	
2054	0	35160	
2055	0	35204	
2056	0	35260	
2057	0	35076	
2058	0	34708	
2059	0	34536	
2060	0	34516	
2061	0	34472	
2062	0	34424	
2063	0	34732	
2064	0	35308	
2065	0	35432	
2066	0	35028	
2067	0	34420	
2068	0	33988	
2069	0	33640	
2070	0	33328	
2071	0	33408	
2072	0	33704	
2073	0	34056	
2074	0	34368	
2075	0	34544	
2076	0	34732	
2077	0	34924	
2078	0	35176	
2079	0	35008	
2080	0	34408	
2081	0	34156	
2082	0	34164	
2083	0	34184	
2084	0	34120	
2085	0	33872	
2086	0	33576	
2087	0	33076	
2088	0	32392	
2089	0	31828	
2090	0	31440	
2091	0	31456	
2092	0	32000	
2093	0	32824	
2094	0	33288	
2095	0	33312	
2096	0	32584	
2097	0	31304	
2098	0	30144	
2099	0	29052	
2100	0	28162	
2101	0	28352	
2102	0	29684	
2103	0	31648	
2104	0	33744	
2105	0	35168	
2106	0	35516	
2107	0	35052	
2108	0	34200	
2109	0	33320	
2110	0	32596	
2111	0	32260	
2112	0	32020	
2113	0	31660	
2114	0	31456	
2115	0	31624	
2116	0	31676	
2117	0	31472	
2118	0	31188	
2119	0	30876	
2120	0	30844	
2121	0	31660	
2122	0	33052	
2123	0	34352	
2124	0	35360	
2125	0	35984	
2126	0	36188	
2127	0	35920	
2128	0	35288	
2129	0	34536	
2130	0	33964	
2131	0	33812	
2132	0	33757	
2133	0	33748	
2134	0	33996	
2135	0	34548	
2136	0	35232	
2137	0	35520	
2138	0	35560	
2139	0	35248	
2140	0	34528	
2141	0	34056	
2142	0	33840	
2143	0	33712	
2144	0	33556	
2145	0	33224	
2146	0	32656	
2147	0	31908	
2148	0	31172	
2149	0	30464	
2150	0	29862	
2151	0	29664	
2152	0	29954	
2153	0	30560	
2154	0	31148	
2155	0	31712	
2156	0	32320	
2157	0	32728	
2158	0	33025	
2159	0	33036	
2160	0	32772	
2161	0	32872	
2162	0	33224	
2163	0	33560	
2164	0	33612	
2165	0	33484	
2166	0	33192	
2167	0	32664	
2168	0	32029	
2169	0	31452	
2170	0	31028	
2171	0	31112	
2172	0	31672	
2173	0	32360	
2174	0	32996	
2175	0	33472	
2176	0	33900	
2177	0	34000	
2178	0	33796	
2179	0	33388	
2180	0	32904	
2181	0	32736	
2182	0	32826	
2183	0	32880	
2184	0	32900	
2185	0	32832	
2186	0	32608	
2187	0	32298	
2188	0	32032	
2189	0	31680	
2190	0	31452	
2191	0	31452	
2192	0	31722	
2193	0	32392	
2194	0	32972	
2195	0	33376	
2196	0	33600	
2197	0	33648	
2198	0	33396	
2199	0	32916	
2200	0	32532	
2201	0	32908	
2202	0	33776	
2203	0	34512	
2204	0	34728	
2205	0	34612	
2206	0	34384	
2207	0	34024	
2208	0	33544	
2209	0	33000	
2210	0	32512	
2211	0	32440	
2212	0	32760	
2213	0	33196	
2214	0	33748	
2215	0	34100	
2216	0	34212	
2217	0	34144	
2218	0	34212	
2219	0	34364	
2220	0	34312	
2221	0	34434	
2222	0	34628	
2223	0	34532	
2224	0	34292	
2225	0	34016	
2226	0	33764	
2227	0	33324	
2228	0	32845	
2229	0	32368	
2230	0	31924	
2231	0	31832	
2232	0	32136	
2233	0	32656	
2234	0	33276	
2235	0	33936	
2236	0	34436	
2237	0	34536	
2238	0	34292	
2239	0	33764	
2240	0	33204	
2241	0	32984	
2242	0	33000	
2243	0	32976	
2244	0	32936	
2245	0	32776	
2246	0	32304	
2247	0	31552	
2248	0	30816	
2249	0	30192	
2250	0	29712	
2251	0	29756	
2252	0	30272	
2253	0	31068	
2254	0	31928	
2255	0	32608	
2256	0	32944	
2257	0	32784	
2258	0	32320	
2259	0	31876	
2260	0	31588	
2261	0	31658	
2262	0	32048	
2263	0	32380	
2264	0	32396	
2265	0	32044	
2266	0	31520	
2267	0	30928	
2268	0	30364	
2269	0	29828	
2270	0	29392	
2271	0	29466	
2272	0	29948	
2273	0	30632	
2274	0	31320	
2275	0	31872	
2276	0	32412	
2277	0	32620	
2278	0	32496	
2279	0	32032	
2280	0	31496	
2281	0	31268	
2282	0	31440	
2283	0	31608	
2284	0	31640	
2285	0	31604	
2286	0	31360	
2287	0	30864	
2288	0	30272	
2289	0	29756	
2290	0	29308	
2291	0	29284	
2292	0	29744	
2293	0	30348	
2294	0	30928	
2295	0	31344	
2296	0	31728	
2297	0	32016	
2298	0	32032	
2299	0	31752	
2300	0	31304	
2301	0	31170	
2302	0	31320	
2303	0	31296	
2304	0	31144	
2305	0	31084	
2306	0	31012	
2307	0	30588	
2308	0	30280	
2309	0	30080	
2310	0	29844	
2311	0	29984	
2312	0	30650	
2313	0	31512	
2314	0	32132	
2315	0	32610	
2316	0	33128	
2317	0	33472	
2318	0	33676	
2319	0	33824	
2320	0	33836	
2321	0	33660	
2322	0	33688	
2323	0	33876	
2324	0	33988	
2325	0	33972	
2326	0	33776	
2327	0	33396	
2328	0	32952	
2329	0	32504	
2330	0	32312	
2331	0	32696	
2332	0	33808	
2333	0	35288	
2334	0	36724	
2335	0	37960	
2336	0	38744	
2337	0	38976	
2338	0	38792	
2339	0	38276	
2340	0	37380	
2341	0	36500	
2342	0	35880	
2343	0	35360	
2344	0	34792	
2345	0	34392	
2346	0	33960	
2347	0	33308	
2348	0	32632	
2349	0	31952	
2350	0	31300	
2351	0	31224	
2352	0	31936	
2353	0	33008	
2354	0	33884	
2355	0	34456	
2356	0	34720	
2357	0	34520	
2358	0	34080	
2359	0	33508	
2360	0	32848	
2361	0	32394	
2362	0	32288	
2363	0	32240	
2364	0	31916	
2365	0	31360	
2366	0	30712	
2367	0	30064	
2368	0	29624	
2369	0	29220	
2370	0	28880	
2371	0	28872	
2372	0	29234	
2373	0	29768	
2374	0	30256	
2375	0	30640	
2376	0	30920	
2377	0	30952	
2378	0	30800	
2379	0	30552	
2380	0	30232	
2381	0	30112	
2382	0	30304	
2383	0	30416	
2384	0	30272	
2385	0	30008	
2386	0	29640	
2387	0	29096	
2388	0	28460	
2389	0	27832	
2390	0	27412	
2391	0	27460	
2392	0	27968	
2393	0	28620	
2394	0	29216	
2395	0	29746	
2396	0	30112	
2397	0	30120	
2398	0	29874	
2399	0	29352	
2400	0	28584	
2401	0	28092	
2402	0	28076	
2403	0	28064	
2404	0	27920	
2405	0	27824	
2406	0	27744	
2407	0	27360	
2408	0	26964	
2409	0	26736	
2410	0	26708	
2411	0	27072	
2412	0	27772	
2413	0	28576	
2414	0	29368	
2415	0	30120	
2416	0	30648	
2417	0	30904	
2418	0	31056	
2419	0	31032	
2420	0	30796	
2421	0	30764	
2422	0	31016	
2423	0	31376	
2424	0	31560	
2425	0	31554	
2426	0	31388	
2427	0	31024	
2428	0	30640	
2429	0	30232	
2430	0	29760	
2431	0	29624	
2432	0	30120	
2433	0	30928	
2434	0	31684	
2435	0	32188	
2436	0	32624	
2437	0	32744	
2438	0	32720	
2439	0	32544	
2440	0	32188	
2441	0	32072	
2442	0	32308	
2443	0	32376	
2444	0	32184	
2445	0	31888	
2446	0	31560	
2447	0	31022	
2448	0	30304	
2449	0	29493	
2450	0	28818	
2451	0	28664	
2452	0	28992	
2453	0	29592	
2454	0	30272	
2455	0	30704	
2456	0	30868	
2457	0	30828	
2458	0	30536	
2459	0	30100	
2460	0	29548	
2461	0	29228	
2462	0	29280	
2463	0	29416	
2464	0	29504	
2465	0	29400	
2466	0	29096	
2467	0	28568	
2468	0	28000	
2469	0	27428	
2470	0	26932	
2471	0	26858	
2472	0	27280	
2473	0	27952	
2474	0	28564	
2475	0	29032	
2476	0	29268	
2477	0	29160	
2478	0	28694	
2479	0	27944	
2480	0	27072	
2481	0	26520	
2482	0	26392	
2483	0	26464	
2484	0	26826	
2485	0	27436	
2486	0	27692	
2487	0	27240	
2488	0	26352	
2489	0	25528	
2490	0	25032	
2491	0	25016	
2492	0	25628	
2493	0	26728	
2494	0	27832	
2495	0	28636	
2496	0	29240	
2497	0	29404	
2498	0	29128	
2499	0	28552	
2500	0	27892	
2501	0	27372	
2502	0	27232	
2503	0	27108	
2504	0	26808	
2505	0	26396	
2506	0	25984	
2507	0	25525	
2508	0	25056	
2509	0	24762	
2510	0	24692	
2511	0	25008	
2512	0	25792	
2513	0	26754	
2514	0	27628	
2515	0	28208	
2516	0	28608	
2517	0	28896	
2518	0	28976	
2519	0	28834	
2520	0	28560	
2521	0	28516	
2522	0	28796	
2523	0	29128	
2524	0	29284	
2525	0	29376	
2526	0	29244	
2527	0	28740	
2528	0	28098	
2529	0	27556	
2530	0	27106	
2531	0	27008	
2532	0	27496	
2533	0	28332	
2534	0	29232	
2535	0	30060	
2536	0	30656	
2537	0	30956	
2538	0	30992	
2539	0	30804	
2540	0	30520	
2541	0	30384	
2542	0	30556	
2543	0	30868	
2544	0	31084	
2545	0	31169	
2546	0	31056	
2547	0	30660	
2548	0	30072	
2549	0	29258	
2550	0	28388	
2551	0	27992	
2552	0	28276	
2553	0	28824	
2554	0	29440	
2555	0	30208	
2556	0	31104	
2557	0	31696	
2558	0	31768	
2559	0	31604	
2560	0	31408	
2561	0	31368	
2562	0	31608	
2563	0	31754	
2564	0	31584	
2565	0	31208	
2566	0	30748	
2567	0	30316	
2568	0	30088	
2569	0	30068	
2570	0	30032	
2571	0	30204	
2572	0	30728	
2573	0	31296	
2574	0	31820	
2575	0	32332	
2576	0	32788	
2577	0	33008	
2578	0	32944	
2579	0	32688	
2580	0	32380	
2581	0	32264	
2582	0	32492	
2583	0	32748	
2584	0	32860	
2585	0	32800	
2586	0	32476	
2587	0	31916	
2588	0	31216	
2589	0	30528	
2590	0	29968	
2591	0	29932	
2592	0	30496	
2593	0	31320	
2594	0	32156	
2595	0	32836	
2596	0	33360	
2597	0	33640	
2598	0	33716	
2599	0	33656	
2600	0	33296	
2601	0	32900	
2602	0	32900	
2603	0	32976	
2604	0	33048	
2605	0	33000	
2606	0	32868	
2607	0	32584	
2608	0	32058	
2609	0	31476	
2610	0	30992	
2611	0	30868	
2612	0	31300	
2613	0	31868	
2614	0	32300	
2615	0	32644	
2616	0	32880	
2617	0	32936	
2618	0	32868	
2619	0	32652	
2620	0	32276	
2621	0	32024	
2622	0	32192	
2623	0	32560	
2624	0	32672	
2625	0	32564	
2626	0	32316	
2627	0	31940	
2628	0	31512	
2629	0	31140	
2630	0	30960	
2631	0	31100	
2632	0	31432	
2633	0	31994	
2634	0	32468	
2635	0	32628	
2636	0	32572	
2637	0	32248	
2638	0	31676	
2639	0	30944	
2640	0	30232	
2641	0	29928	
2642	0	30092	
2643	0	30648	
2644	0	31204	
2645	0	31520	
2646	0	31648	
2647	0	31629	
2648	0	31616	
2649	0	31468	
2650	0	31112	
2651	0	30888	
2652	0	31084	
2653	0	31489	
2654	0	31820	
2655	0	32060	
2656	0	32196	
2657	0	32224	
2658	0	32204	
2659	0	32152	
2660	0	32000	
2661	0	31736	
2662	0	31656	
2663	0	31652	
2664	0	31584	
2665	0	31404	
2666	0	31120	
2667	0	30680	
2668	0	30244	
2669	0	29888	
2670	0	29628	
2671	0	29572	
2672	0	29816	
2673	0	30256	
2674	0	30692	
2675	0	31104	
2676	0	31508	
2677	0	31748	
2678	0	31792	
2679	0	31704	
2680	0	31496	
2681	0	31316	
2682	0	31392	
2683	0	31660	
2684	0	31840	
2685	0	31864	
2686	0	31744	
2687	0	31420	
2688	0	31032	
2689	0	30636	
2690	0	30336	
2691	0	30040	
2692	0	30088	
2693	0	30384	
2694	0	30776	
2695	0	31184	
2696	0	31456	
2697	0	31544	
2698	0	31445	
2699	0	31340	
2700	0	31088	
2701	0	30824	
2702	0	30824	
2703	0	30880	
2704	0	30964	
2705	0	31104	
2706	0	31124	
2707	0	31012	
2708	0	30821	
2709	0	30504	
2710	0	30234	
2711	0	30212	
2712	0	30568	
2713	0	31032	
2714	0	31376	
2715	0	31598	
2716	0	31596	
2717	0	31424	
2718	0	31320	
2719	0	31284	
2720	0	31184	
2721	0	31092	
2722	0	31256	
2723	0	31460	
2724	0	31520	
2725	0	31476	
2726	0	31377	
2727	0	31180	
2728	0	30946	
2729	0	30740	
2730	0	30568	
2731	0	30664	
2732	0	31060	
2733	0	31640	
2734	0	32066	
2735	0	32284	
2736	0	32352	
2737	0	32416	
2738	0	32420	
2739	0	32276	
2740	0	32060	
2741	0	31988	
2742	0	32188	
2743	0	32504	
2744	0	32668	
2745	0	32656	
2746	0	32386	
2747	0	31930	
2748	0	31676	
2749	0	31572	
2750	0	31472	
2751	0	31364	
2752	0	31360	
2753	0	31508	
2754	0	31736	
2755	0	31820	
2756	0	31760	
2757	0	31589	
2758	0	31530	
2759	0	31744	
2760	0	32120	
2761	0	32608	
2762	0	33248	
2763	0	33682	
2764	0	33844	
2765	0	33700	
2766	0	33304	
2767	0	32912	
2768	0	32556	
2769	0	32224	
2770	0	31912	
2771	0	31780	
2772	0	31964	
2773	0	32368	
2774	0	32788	
2775	0	33000	
2776	0	33072	
2777	0	33016	
2778	0	32812	
2779	0	32472	
2780	0	32168	
2781	0	31948	
2782	0	32024	
2783	0	32136	
2784	0	32152	
2785	0	32108	
2786	0	32020	
2787	0	31768	
2788	0	31420	
2789	0	31212	
2790	0	30988	
2791	0	30936	
2792	0	31104	
2793	0	31464	
2794	0	31912	
2795	0	32308	
2796	0	32532	
2797	0	32536	
2798	0	32388	
2799	0	32256	
2800	0	32144	
2801	0	32152	
2802	0	32288	
2803	0	32472	
2804	0	32490	
2805	0	32424	
2806	0	32368	
2807	0	32212	
2808	0	31964	
2809	0	31768	
2810	0	31700	
2811	0	31820	
2812	0	32160	
2813	0	32576	
2814	0	33032	
2815	0	33404	
2816	0	33664	
2817	0	33740	
2818	0	33632	
2819	0	33396	
2820	0	33096	
2821	0	32764	
2822	0	32608	
2823	0	32640	
2824	0	32728	
2825	0	32760	
2826	0	32760	
2827	0	32620	
2828	0	32284	
2829	0	31884	
2830	0	31632	
2831	0	31593	
2832	0	31760	
2833	0	32032	
2834	0	32284	
2835	0	32384	
2836	0	32332	
2837	0	32288	
2838	0	32200	
2839	0	32152	
2840	0	32336	
2841	0	32728	
2842	0	33184	
2843	0	33616	
2844	0	33840	
2845	0	33780	
2846	0	33548	
2847	0	33184	
2848	0	32772	
2849	0	32472	
2850	0	32228	
2851	0	32192	
2852	0	32416	
2853	0	32696	
2854	0	32940	
2855	0	33200	
2856	0	33320	
2857	0	33266	
2858	0	33072	
2859	0	32832	
2860	0	32564	
2861	0	32352	
2862	0	32456	
2863	0	32604	
2864	0	32600	
2865	0	32528	
2866	0	32392	
2867	0	32352	
2868	0	32232	
2869	0	32154	
2870	0	32144	
2871	0	32308	
2872	0	32552	
2873	0	32800	
2874	0	33092	
2875	0	33352	
2876	0	33576	
2877	0	33728	
2878	0	33808	
2879	0	33756	
2880	0	33508	
2881	0	33260	
2882	0	33264	
2883	0	33584	
2884	0	33932	
2885	0	33968	
2886	0	33799	
2887	0	33380	
2888	0	32964	
2889	0	32696	
2890	0	32492	
2891	0	32392	
2892	0	32536	
2893	0	32848	
2894	0	33156	
2895	0	33476	
2896	0	33784	
2897	0	33996	
2898	0	33996	
2899	0	33900	
2900	0	33756	
2901	0	33788	
2902	0	33968	
2903	0	34192	
2904	0	34132	
2905	0	33800	
2906	0	33428	
2907	0	33112	
2908	0	32944	
2909	0	32928	
2910	0	32876	
2911	0	32912	
2912	0	33148	
2913	0	33472	
2914	0	33816	
2915	0	34128	
2916	0	34312	
2917	0	34360	
2918	0	34304	
2919	0	34118	
2920	0	33840	
2921	0	33644	
2922	0	33616	
2923	0	33776	
2924	0	33972	
2925	0	34056	
2926	0	33980	
2927	0	33820	
2928	0	33680	
2929	0	33596	
2930	0	33552	
2931	0	33648	
2932	0	33840	
2933	0	33916	
2934	0	33984	
2935	0	34114	
2936	0	34052	
2937	0	33984	
2938	0	33864	
2939	0	33648	
2940	0	33480	
2941	0	33364	
2942	0	33448	
2943	0	33808	
2944	0	34140	
2945	0	34432	
2946	0	34616	
2947	0	34640	
2948	0	34444	
2949	0	34208	
2950	0	34052	
2951	0	34068	
2952	0	34396	
2953	0	34652	
2954	0	34712	
2955	0	34700	
2956	0	34720	
2957	0	34804	
2958	0	34800	
2959	0	34768	
2960	0	34756	
2961	0	34744	
2962	0	34800	
2963	0	34976	
2964	0	35120	
2965	0	35136	
2966	0	34972	
2967	0	34652	
2968	0	34296	
2969	0	33964	
2970	0	33804	
2971	0	33858	
2972	0	34100	
2973	0	34472	
2974	0	34928	
2975	0	35172	
2976	0	35252	
2977	0	35276	
2978	0	35212	
2979	0	35112	
2980	0	34896	
2981	0	34652	
2982	0	34570	
2983	0	34596	
2984	0	34552	
2985	0	34452	
2986	0	34396	
2987	0	34360	
2988	0	34354	
2989	0	34336	
2990	0	34380	
2991	0	34428	
2992	0	34560	
2993	0	34784	
2994	0	35000	
2995	0	35136	
2996	0	35280	
2997	0	35388	
2998	0	35388	
2999	0	35376	
3000	0	35464	
3001	0	35532	
3002	0	35692	
3003	0	35932	
3004	0	36080	
3005	0	35968	
3006	0	35592	
3007	0	35128	
3008	0	34752	
3009	0	34416	
3010	0	34300	
3011	0	34224	
3012	0	34360	
3013	0	34760	
3014	0	35304	
3015	0	35780	
3016	0	35956	
3017	0	35928	
3018	0	35752	
3019	0	35800	
3020	0	35872	
3021	0	35928	
3022	0	36048	
3023	0	36032	
3024	0	35930	
3025	0	35800	
3026	0	35640	
3027	0	35376	
3028	0	35144	
3029	0	34948	
3030	0	34900	
3031	0	34864	
3032	0	34904	
3033	0	34984	
3034	0	35064	
3035	0	35164	
3036	0	35360	
3037	0	35632	
3038	0	35764	
3039	0	35714	
3040	0	35552	
3041	0	35244	
3042	0	35164	
3043	0	35284	
3044	0	35364	
3045	0	35284	
3046	0	35164	
3047	0	34848	
3048	0	34432	
3049	0	34004	
3050	0	33664	
3051	0	33536	
3052	0	33820	
3053	0	34204	
3054	0	34592	
3055	0	34844	
3056	0	34972	
3057	0	35000	
3058	0	34864	
3059	0	34680	
3060	0	34340	
3061	0	33912	
3062	0	33760	
3063	0	33768	
3064	0	33760	
3065	0	33632	
3066	0	33498	
3067	0	33432	
3068	0	33292	
3069	0	33080	
3070	0	32928	
3071	0	32884	
3072	0	33156	
3073	0	33660	
3074	0	34160	
3075	0	34536	
3076	0	34696	
3077	0	34700	
3078	0	34656	
3079	0	34564	
3080	0	34260	
3081	0	33848	
3082	0	33684	
3083	0	33696	
3084	0	33656	
3085	0	33440	
3086	0	33232	
3087	0	32896	
3088	0	32360	
3089	0	31848	
3090	0	31524	
3091	0	31412	
3092	0	31596	
3093	0	32040	
3094	0	32636	
3095	0	33264	
3096	0	33780	
3097	0	33984	
3098	0	33944	
3099	0	33798	
3100	0	33640	
3101	0	33552	
3102	0	33632	
3103	0	33864	
3104	0	34024	
3105	0	33948	
3106	0	33646	
3107	0	33140	
3108	0	32544	
3109	0	32026	
3110	0	31712	
3111	0	31664	
3112	0	32048	
3113	0	32698	
3114	0	33256	
3115	0	33636	
3116	0	33920	
3117	0	34292	
3118	0	34444	
3119	0	34496	
3120	0	34584	
3121	0	34728	
3122	0	34956	
3123	0	35172	
3124	0	35288	
3125	0	35520	
3126	0	35640	
3127	0	35520	
3128	0	35264	
3129	0	35080	
3130	0	34928	
3131	0	34908	
3132	0	35268	
3133	0	36020	
3134	0	36912	
3135	0	37636	
3136	0	38288	
3137	0	38848	
3138	0	39240	
3139	0	39512	
3140	0	39876	
3141	0	40308	
3142	0	40856	
3143	0	41464	
3144	0	42024	
3145	0	42280	
3146	0	42162	
3147	0	41616	
3148	0	40624	
3149	0	39296	
3150	0	37952	
3151	0	37012	
3152	0	36808	
3153	0	37100	
3154	0	37496	
3155	0	37764	
3156	0	37924	
3157	0	37920	
3158	0	37784	
3159	0	37536	
3160	0	37072	
3161	0	36496	
3162	0	36252	
3163	0	36228	
3164	0	36296	
3165	0	36184	
3166	0	35724	
3167	0	35084	
3168	0	34362	
3169	0	33668	
3170	0	33000	
3171	0	32572	
3172	0	32544	
3173	0	32880	
3174	0	33408	
3175	0	33932	
3176	0	34412	
3177	0	34712	
3178	0	34520	
3179	0	34048	
3180	0	33460	
3181	0	32832	
3182	0	32436	
3183	0	32288	
3184	0	32204	
3185	0	32004	
3186	0	31748	
3187	0	31448	
3188	0	31282	
3189	0	31108	
3190	0	30792	
3191	0	30548	
3192	0	30768	
3193	0	31348	
3194	0	32080	
3195	0	32536	
3196	0	32716	
3197	0	32680	
3198	0	32480	
3199	0	32192	
3200	0	32020	
3201	0	31748	
3202	0	31576	
3203	0	31672	
3204	0	31792	
3205	0	31816	
3206	0	31808	
3207	0	31712	
3208	0	31520	
3209	0	31288	
3210	0	31080	
3211	0	30972	
3212	0	31172	
3213	0	31704	
3214	0	32285	
3215	0	32680	
3216	0	32996	
3217	0	33082	
3218	0	32908	
3219	0	32656	
3220	0	32368	
3221	0	32116	
3222	0	32184	
3223	0	32484	
3224	0	32660	
3225	0	32640	
3226	0	32584	
3227	0	32348	
3228	0	32004	
3229	0	31680	
3230	0	31456	
3231	0	31384	
3232	0	31572	
3233	0	31968	
3234	0	32444	
3235	0	32842	
3236	0	33048	
3237	0	33112	
3238	0	33056	
3239	0	33002	
3240	0	32832	
3241	0	32516	
3242	0	32288	
3243	0	32178	
3244	0	32168	
3245	0	32192	
3246	0	32088	
3247	0	31868	
3248	0	31568	
3249	0	31384	
3250	0	31192	
3251	0	31024	
3252	0	31264	
3253	0	31812	
3254	0	32464	
3255	0	33096	
3256	0	33540	
3257	0	33680	
3258	0	33448	
3259	0	33084	
3260	0	32704	
3261	0	32316	
3262	0	32072	
3263	0	32120	
3264	0	32212	
3265	0	32164	
3266	0	31984	
3267	0	31704	
3268	0	31330	
3269	0	31016	
3270	0	30838	
3271	0	30896	
3272	0	31212	
3273	0	31740	
3274	0	32360	
3275	0	32920	
3276	0	33312	
3277	0	33568	
3278	0	33600	
3279	0	33488	
3280	0	33300	
3281	0	32924	
3282	0	32700	
3283	0	32768	
3284	0	32912	
3285	0	32980	
3286	0	32908	
3287	0	32720	
3288	0	32432	
3289	0	32128	
3290	0	31860	
3291	0	31580	
3292	0	31672	
3293	0	32116	
3294	0	32712	
3295	0	33352	
3296	0	33916	
3297	0	34164	
3298	0	34126	
3299	0	33920	
3300	0	33608	
3301	0	33336	
3302	0	33240	
3303	0	33304	
3304	0	33352	
3305	0	33336	
3306	0	33252	
3307	0	33116	
3308	0	32836	
3309	0	32460	
3310	0	32152	
3311	0	31996	
3312	0	32140	
3313	0	32696	
3314	0	33476	
3315	0	34168	
3316	0	34520	
3317	0	34604	
3318	0	34456	
3319	0	34124	
3320	0	33708	
3321	0	33372	
3322	0	33312	
3323	0	33440	
3324	0	33584	
3325	0	33504	
3326	0	33268	
3327	0	33004	
3328	0	32684	
3329	0	32384	
3330	0	32112	
3331	0	31840	
3332	0	31884	
3333	0	32336	
3334	0	32976	
3335	0	33528	
3336	0	33928	
3337	0	34250	
3338	0	34464	
3339	0	34526	
3340	0	34432	
3341	0	34196	
3342	0	34048	
3343	0	34104	
3344	0	34104	
3345	0	33944	
3346	0	33760	
3347	0	33528	
3348	0	33100	
3349	0	32610	
3350	0	32186	
3351	0	32044	
3352	0	32228	
3353	0	32840	
3354	0	33618	
3355	0	34276	
3356	0	34696	
3357	0	34932	
3358	0	34916	
3359	0	34732	
3360	0	34428	
3361	0	34088	
3362	0	33936	
3363	0	34004	
3364	0	34074	
3365	0	34084	
3366	0	34016	
3367	0	33828	
3368	0	33456	
3369	0	32960	
3370	0	32484	
3371	0	32232	
3372	0	32444	
3373	0	33052	
3374	0	33772	
3375	0	34413	
3376	0	34864	
3377	0	35044	
3378	0	34960	
3379	0	34764	
3380	0	34508	
3381	0	34240	
3382	0	34104	
3383	0	34192	
3384	0	34324	
3385	0	34328	
3386	0	34240	
3387	0	34052	
3388	0	33712	
3389	0	33352	
3390	0	33148	
3391	0	33024	
3392	0	33212	
3393	0	33752	
3394	0	34408	
3395	0	34914	
3396	0	35304	
3397	0	35488	
3398	0	35420	
3399	0	35136	
3400	0	34690	
3401	0	34264	
3402	0	34102	
3403	0	34264	
3404	0	34536	
3405	0	34596	
3406	0	34432	
3407	0	34140	
3408	0	33784	
3409	0	33396	
3410	0	33042	
3411	0	32792	
3412	0	32864	
3413	0	33296	
3414	0	33868	
3415	0	34424	
3416	0	34768	
3417	0	34996	
3418	0	35008	
3419	0	34928	
3420	0	34720	
3421	0	34336	
3422	0	34098	
3423	0	34052	
3424	0	34072	
3425	0	33968	
3426	0	33832	
3427	0	33628	
3428	0	33328	
3429	0	32924	
3430	0	32560	
3431	0	32304	
3432	0	32372	
3433	0	32816	
3434	0	33492	
3435	0	34022	
3436	0	34348	
3437	0	34472	
3438	0	34394	
3439	0	34188	
3440	0	33928	
3441	0	33488	
3442	0	33184	
3443	0	33184	
3444	0	33284	
3445	0	33298	
3446	0	33280	
3447	0	33141	
3448	0	32800	
3449	0	32357	
3450	0	31860	
3451	0	31444	
3452	0	31288	
3453	0	31548	
3454	0	31928	
3455	0	32304	
3456	0	32554	
3457	0	32816	
3458	0	32916	
3459	0	32872	
3460	0	32698	
3461	0	32396	
3462	0	32208	
3463	0	32380	
3464	0	32476	
3465	0	32340	
3466	0	32200	
3467	0	32124	
3468	0	32064	
3469	0	32104	
3470	0	32248	
3471	0	32332	
3472	0	32532	
3473	0	32904	
3474	0	33320	
3475	0	33680	
3476	0	33760	
3477	0	33448	
3478	0	32824	
3479	0	32168	
3480	0	31488	
3481	0	30832	
3482	0	30592	
3483	0	30840	
3484	0	31216	
3485	0	31404	
3486	0	31376	
3487	0	31024	
3488	0	30568	
3489	0	30132	
3490	0	29856	
3491	0	29516	
3492	0	29432	
3493	0	29784	
3494	0	30312	
3495	0	30952	
3496	0	31556	
3497	0	32072	
3498	0	32316	
3499	0	32304	
3500	0	32132	
3501	0	31794	
3502	0	31576	
3503	0	31641	
3504	0	31840	
3505	0	31868	
3506	0	31772	
3507	0	31586	
3508	0	31236	
3509	0	30810	
3510	0	30420	
3511	0	30100	
3512	0	30092	
3513	0	30652	
3514	0	31376	
3515	0	32064	
3516	0	32556	
3517	0	32664	
3518	0	32580	
3519	0	32620	
3520	0	32636	
3521	0	32452	
3522	0	32406	
3523	0	32704	
3524	0	32980	
3525	0	33044	
3526	0	32872	
3527	0	32528	
3528	0	32048	
3529	0	31608	
3530	0	31208	
3531	0	30944	
3532	0	30980	
3533	0	31402	
3534	0	31896	
3535	0	32346	
3536	0	32716	
3537	0	33076	
3538	0	33284	
3539	0	33340	
3540	0	33192	
3541	0	32888	
3542	0	32556	
3543	0	32432	
3544	0	32316	
3545	0	32168	
3546	0	31924	
3547	0	31452	
3548	0	30848	
3549	0	30410	
3550	0	30364	
3551	0	30580	
3552	0	31008	
3553	0	31820	
3554	0	32562	
3555	0	33096	
3556	0	33460	
3557	0	33644	
3558	0	33612	
3559	0	33360	
3560	0	32948	
3561	0	32420	
3562	0	32040	
3563	0	32004	
3564	0	32048	
3565	0	32008	
3566	0	31932	
3567	0	31708	
3568	0	31372	
3569	0	30976	
3570	0	30576	
3571	0	30296	
3572	0	30380	
3573	0	30840	
3574	0	31472	
3575	0	32056	
3576	0	32568	
3577	0	32896	
3578	0	32972	
3579	0	32840	
3580	0	32680	
3581	0	32492	
3582	0	32384	
3583	0	32516	
3584	0	32700	
3585	0	32824	
3586	0	32888	
3587	0	32700	
3588	0	32296	
3589	0	31880	
3590	0	31528	
3591	0	31304	
3592	0	31356	
3593	0	31776	
3594	0	32372	
3595	0	32920	
3596	0	33332	
3597	0	33572	
3598	0	33560	
3599	0	33392	
3600	0	33140	
3601	0	32812	
3602	0	32540	
3603	0	32520	
3604	0	32624	
3605	0	32696	
3606	0	32656	
3607	0	32468	
3608	0	32220	
3609	0	31956	
3610	0	31684	
3611	0	31464	
3612	0	31488	
3613	0	31900	
3614	0	32504	
3615	0	33104	
3616	0	33592	
3617	0	33818	
3618	0	33832	
3619	0	33660	
3620	0	33340	
3621	0	32968	
3622	0	32720	
3623	0	32716	
3624	0	32776	
3625	0	32824	
3626	0	32800	
3627	0	32636	
3628	0	32314	
3629	0	31896	
3630	0	31528	
3631	0	31264	
3632	0	31320	
3633	0	31704	
3634	0	32250	
3635	0	32776	
3636	0	33176	
3637	0	33464	
3638	0	33488	
3639	0	33352	
3640	0	33136	
3641	0	32916	
3642	0	32748	
3643	0	32802	
3644	0	32924	
3645	0	32912	
3646	0	32840	
3647	0	32720	
3648	0	32488	
3649	0	32172	
3650	0	31864	
3651	0	31560	
3652	0	31460	
3653	0	31736	
3654	0	32208	
3655	0	32704	
3656	0	33160	
3657	0	33480	
3658	0	33604	
3659	0	33552	
3660	0	33340	
3661	0	33008	
3662	0	32732	
3663	0	32736	
3664	0	32800	
3665	0	32768	
3666	0	32716	
3667	0	32620	
3668	0	32320	
3669	0	31988	
3670	0	31680	
3671	0	31432	
3672	0	31400	
3673	0	31704	
3674	0	32248	
3675	0	32780	
3676	0	33216	
3677	0	33568	
3678	0	33756	
3679	0	33704	
3680	0	33424	
3681	0	33020	
3682	0	32730	
3683	0	32724	
3684	0	32880	
3685	0	32916	
3686	0	32824	
3687	0	32600	
3688	0	32256	
3689	0	31940	
3690	0	31676	
3691	0	31492	
3692	0	31568	
3693	0	32020	
3694	0	32664	
3695	0	33224	
3696	0	33640	
3697	0	33880	
3698	0	33900	
3699	0	33756	
3700	0	33428	
3701	0	33004	
3702	0	32668	
3703	0	32688	
3704	0	32848	
3705	0	32964	
3706	0	32952	
3707	0	32812	
3708	0	32542	
3709	0	32240	
3710	0	31924	
3711	0	31604	
3712	0	31484	
3713	0	31784	
3714	0	32356	
3715	0	32912	
3716	0	33368	
3717	0	33570	
3718	0	33692	
3719	0	33688	
3720	0	33680	
3721	0	33584	
3722	0	33444	
3723	0	33436	
3724	0	33480	
3725	0	33400	
3726	0	33228	
3727	0	33008	
3728	0	32732	
3729	0	32368	
3730	0	32050	
3731	0	31792	
3732	0	31776	
3733	0	32152	
3734	0	32832	
3735	0	33548	
3736	0	34016	
3737	0	34228	
3738	0	34020	
3739	0	33560	
3740	0	32970	
3741	0	32472	
3742	0	32266	
3743	0	32440	
3744	0	32680	
3745	0	32852	
3746	0	32976	
3747	0	32956	
3748	0	32794	
3749	0	32544	
3750	0	32336	
3751	0	32108	
3752	0	31984	
3753	0	32216	
3754	0	32628	
3755	0	33092	
3756	0	33456	
3757	0	33716	
3758	0	33840	
3759	0	33784	
3760	0	33596	
3761	0	33316	
3762	0	33168	
3763	0	33336	
3764	0	33696	
3765	0	33970	
3766	0	34064	
3767	0	33868	
3768	0	33286	
3769	0	32592	
3770	0	32132	
3771	0	31876	
3772	0	31896	
3773	0	32154	
3774	0	32472	
3775	0	32812	
3776	0	33152	
3777	0	33564	
3778	0	33824	
3779	0	33824	
3780	0	33660	
3781	0	33424	
3782	0	33234	
3783	0	33268	
3784	0	33408	
3785	0	33520	
3786	0	33512	
3787	0	33312	
3788	0	32984	
3789	0	32612	
3790	0	32304	
3791	0	32048	
3792	0	31992	
3793	0	32344	
3794	0	32960	
3795	0	33572	
3796	0	34112	
3797	0	34480	
3798	0	34680	
3799	0	34680	
3800	0	34552	
3801	0	34292	
3802	0	34000	
3803	0	33964	
3804	0	34048	
3805	0	34080	
3806	0	34000	
3807	0	33844	
3808	0	33644	
3809	0	33468	
3810	0	33264	
3811	0	33076	
3812	0	32980	
3813	0	33200	
3814	0	33672	
3815	0	34260	
3816	0	34804	
3817	0	35104	
3818	0	35164	
3819	0	35096	
3820	0	34856	
3821	0	34444	
3822	0	34052	
3823	0	34024	
3824	0	34152	
3825	0	34248	
3826	0	34268	
3827	0	34132	
3828	0	33792	
3829	0	33392	
3830	0	33024	
3831	0	32660	
3832	0	32548	
3833	0	32840	
3834	0	33348	
3835	0	33834	
3836	0	34208	
3837	0	34456	
3838	0	34540	
3839	0	34504	
3840	0	34352	
3841	0	34050	
3842	0	33600	
3843	0	33296	
3844	0	33168	
3845	0	33032	
3846	0	32846	
3847	0	32552	
3848	0	32196	
3849	0	31820	
3850	0	31376	
3851	0	31028	
3852	0	31004	
3853	0	31416	
3854	0	32004	
3855	0	32552	
3856	0	32980	
3857	0	33284	
3858	0	33448	
3859	0	33452	
3860	0	33308	
3861	0	32988	
3862	0	32624	
3863	0	32548	
3864	0	32640	
3865	0	32712	
3866	0	32680	
3867	0	32568	
3868	0	32288	
3869	0	31912	
3870	0	31552	
3871	0	31276	
3872	0	31216	
3873	0	31514	
3874	0	31976	
3875	0	32376	
3876	0	32792	
3877	0	33192	
3878	0	33481	
3879	0	33504	
3880	0	33296	
3881	0	32912	
3882	0	32456	
3883	0	32292	
3884	0	32388	
3885	0	32528	
3886	0	32504	
3887	0	32380	
3888	0	32176	
3889	0	31868	
3890	0	31536	
3891	0	31256	
3892	0	31172	
3893	0	31450	
3894	0	31984	
3895	0	32560	
3896	0	33004	
3897	0	33308	
3898	0	33432	
3899	0	33300	
3900	0	33020	
3901	0	32704	
3902	0	32464	
3903	0	32516	
3904	0	32748	
3905	0	32856	
3906	0	32804	
3907	0	32608	
3908	0	32320	
3909	0	31972	
3910	0	31746	
3911	0	31632	
3912	0	31684	
3913	0	32088	
3914	0	32716	
3915	0	33412	
3916	0	33980	
3917	0	34324	
3918	0	34512	
3919	0	34620	
3920	0	34664	
3921	0	34684	
3922	0	34724	
3923	0	34988	
3924	0	35424	
3925	0	35792	
3926	0	35984	
3927	0	35980	
3928	0	35896	
3929	0	35784	
3930	0	35728	
3931	0	35696	
3932	0	35768	
3933	0	36192	
3934	0	37088	
3935	0	38244	
3936	0	39532	
3937	0	40792	
3938	0	41808	
3939	0	42336	
3940	0	42340	
3941	0	42028	
3942	0	41576	
3943	0	41140	
3944	0	40594	
3945	0	39936	
3946	0	39176	
3947	0	38406	
3948	0	37740	
3949	0	37248	
3950	0	36836	
3951	0	36376	
3952	0	35848	
3953	0	35596	
3954	0	35680	
3955	0	35980	
3956	0	36332	
3957	0	36602	
3958	0	36652	
3959	0	36442	
3960	0	36032	
3961	0	35384	
3962	0	34636	
3963	0	34152	
3964	0	33908	
3965	0	33672	
3966	0	33338	
3967	0	32936	
3968	0	32512	
3969	0	32018	
3970	0	31528	
3971	0	31136	
3972	0	30876	
3973	0	30848	
3974	0	31212	
3975	0	31820	
3976	0	32352	
3977	0	32640	
3978	0	32664	
3979	0	32520	
3980	0	32346	
3981	0	32124	
3982	0	31784	
3983	0	31566	
3984	0	31524	
3985	0	31480	
3986	0	31444	
3987	0	31360	
3988	0	31206	
3989	0	30976	
3990	0	30672	
3991	0	30378	
3992	0	30184	
3993	0	30376	
3994	0	30872	
3995	0	31396	
3996	0	31800	
3997	0	32064	
3998	0	32204	
3999	0	32200	
4000	0	32064	
4001	0	31744	
4002	0	31368	
4003	0	31252	
4004	0	31312	
4005	0	31416	
4006	0	31416	
4007	0	31360	
4008	0	31248	
4009	0	30984	
4010	0	30608	
4011	0	30342	
4012	0	30220	
4013	0	30448	
4014	0	30944	
4015	0	31536	
4016	0	32040	
4017	0	32424	
4018	0	32608	
4019	0	32568	
4020	0	32360	
4021	0	32024	
4022	0	31616	
4023	0	31412	
4024	0	31436	
4025	0	31460	
4026	0	31416	
4027	0	31376	
4028	0	31328	
4029	0	31168	
4030	0	30940	
4031	0	30732	
4032	0	30672	
4033	0	30912	
4034	0	31504	
4035	0	32176	
4036	0	32664	
4037	0	32936	
4038	0	33044	
4039	0	32864	
4040	0	32520	
4041	0	32152	
4042	0	31736	
4043	0	31578	
4044	0	31688	
4045	0	31824	
4046	0	31884	
4047	0	31816	
4048	0	31584	
4049	0	31180	
4050	0	30784	
4051	0	30508	
4052	0	30408	
4053	0	30744	
4054	0	31372	
4055	0	31944	
4056	0	32540	
4057	0	32961	
4058	0	33064	
4059	0	32856	
4060	0	32528	
4061	0	32228	
4062	0	31912	
4063	0	31832	
4064	0	31964	
4065	0	32144	
4066	0	32212	
4067	0	32108	
4068	0	31904	
4069	0	31640	
4070	0	31380	
4071	0	31168	
4072	0	31074	
4073	0	31316	
4074	0	31904	
4075	0	32568	
4076	0	33076	
4077	0	33304	
4078	0	33296	
4079	0	33048	
4080	0	32768	
4081	0	32480	
4082	0	32152	
4083	0	32088	
4084	0	32306	
4085	0	32484	
4086	0	32496	
4087	0	32408	
4088	0	32216	
4089	0	31904	
4090	0	31580	
4091	0	31300	
4092	0	31132	
4093	0	31356	
4094	0	31944	
4095	0	32576	
4096	0	33160	
4097	0	33596	
4098	0	33820	
4099	0	33752	
4100	0	33544	
4101	0	33264	
4102	0	32924	
4103	0	32780	
4104	0	32892	
4105	0	32960	
4106	0	32920	
4107	0	32780	
4108	0	32514	
4109	0	32168	
4110	0	31872	
4111	0	31620	
4112	0	31464	
4113	0	31674	
4114	0	32200	
4115	0	32816	
4116	0	33372	
4117	0	33716	
4118	0	33896	
4119	0	33880	
4120	0	33652	
4121	0	33368	
4122	0	33040	
4123	0	32936	
4124	0	33056	
4125	0	33220	
4126	0	33220	
4127	0	33192	
4128	0	33048	
4129	0	32824	
4130	0	32564	
4131	0	32304	
4132	0	32088	
4133	0	32256	
4134	0	32796	
4135	0	33416	
4136	0	33996	
4137	0	34368	
4138	0	34560	
4139	0	34592	
4140	0	34424	
4141	0	34080	
4142	0	33620	
4143	0	33548	
4144	0	33776	
4145	0	33932	
4146	0	33972	
4147	0	33808	
4148	0	33528	
4149	0	33120	
4150	0	32672	
4151	0	32340	
4152	0	32220	
4153	0	32388	
4154	0	32844	
4155	0	33436	
4156	0	33976	
4157	0	34368	
4158	0	34616	
4159	0	34664	
4160	0	34564	
4161	0	34312	
4162	0	34001	
4163	0	33920	
4164	0	34042	
4165	0	34192	
4166	0	34154	
4167	0	34144	
4168	0	34048	
4169	0	33780	
4170	0	33436	
4171	0	33076	
4172	0	32876	
4173	0	33108	
4174	0	33680	
4175	0	34304	
4176	0	34840	
4177	0	35156	
4178	0	35232	
4179	0	35140	
4180	0	35032	
4181	0	34868	
4182	0	34664	
4183	0	34562	
4184	0	34660	
4185	0	34744	
4186	0	34680	
4187	0	34560	
4188	0	34364	
4189	0	34052	
4190	0	33708	
4191	0	33352	
4192	0	33090	
4193	0	33124	
4194	0	33564	
4195	0	34144	
4196	0	34692	
4197	0	35088	
4198	0	35300	
4199	0	35276	
4200	0	35132	
4201	0	34916	
4202	0	34592	
4203	0	34388	
4204	0	34476	
4205	0	34568	
4206	0	34488	
4207	0	34336	
4208	0	34164	
4209	0	33912	
4210	0	33640	
4211	0	33356	
4212	0	33092	
4213	0	33140	
4214	0	33536	
4215	0	34044	
4216	0	34480	
4217	0	34736	
4218	0	34860	
4219	0	34830	
4220	0	34604	
4221	0	34264	
4222	0	33888	
4223	0	33696	
4224	0	33756	
4225	0	33828	
4226	0	33772	
4227	0	33604	
4228	0	33388	
4229	0	33088	
4230	0	32714	
4231	0	32346	
4232	0	32056	
4233	0	32096	
4234	0	32420	
4235	0	32880	
4236	0	33284	
4237	0	33528	
4238	0	33542	
4239	0	33444	
4240	0	33324	
4241	0	33150	
4242	0	32864	
4243	0	32696	
4244	0	32770	
4245	0	32880	
4246	0	32772	
4247	0	32596	
4248	0	32404	
4249	0	32104	
4250	0	31736	
4251	0	31324	
4252	0	30996	
4253	0	31048	
4254	0	31424	
4255	0	31900	
4256	0	32348	
4257	0	32640	
4258	0	32808	
4259	0	32804	
4260	0	32632	
4261	0	32336	
4262	0	32016	
4263	0	31840	
4264	0	31856	
4265	0	31944	
4266	0	31928	
4267	0	31796	
4268	0	31508	
4269	0	31098	
4270	0	30696	
4271	0	30352	
4272	0	30060	
4273	0	30128	
4274	0	30572	
4275	0	31120	
4276	0	31640	
4277	0	32056	
4278	0	32256	
4279	0	32220	
4280	0	32080	
4281	0	31824	
4282	0	31456	
4283	0	31136	
4284	0	31146	
4285	0	31264	
4286	0	31288	
4287	0	31244	
4288	0	31096	
4289	0	30864	
4290	0	30584	
4291	0	30288	
4292	0	30092	
4293	0	30176	
4294	0	30584	
4295	0	31128	
4296	0	31688	
4297	0	32112	
4298	0	32432	
4299	0	32524	
4300	0	32364	
4301	0	32076	
4302	0	31620	
4303	0	31336	
4304	0	31444	
4305	0	31632	
4306	0	31636	
4307	0	31488	
4308	0	31300	
4309	0	31004	
4310	0	30668	
4311	0	30376	
4312	0	30232	
4313	0	30288	
4314	0	30696	
4315	0	31276	
4316	0	31810	
4317	0	32212	
4318	0	32472	
4319	0	32496	
4320	0	32322	
4321	0	32016	
4322	0	31648	
4323	0	31464	
4324	0	31624	
4325	0	31824	
4326	0	31856	
4327	0	31744	
4328	0	31480	
4329	0	31144	
4330	0	30772	
4331	0	30460	
4332	0	30296	
4333	0	30420	
4334	0	30888	
4335	0	31448	
4336	0	31896	
4337	0	32240	
4338	0	32520	
4339	0	32664	
4340	0	32664	
4341	0	32476	
4342	0	32186	
4343	0	32008	
4344	0	32096	
4345	0	32256	
4346	0	32242	
4347	0	32064	
4348	0	31792	
4349	0	31500	
4350	0	31188	
4351	0	30912	
4352	0	30660	
4353	0	30610	
4354	0	30996	
4355	0	31592	
4356	0	32136	
4357	0	32528	
4358	0	32804	
4359	0	32884	
4360	0	32740	
4361	0	32448	
4362	0	32074	
4363	0	31888	
4364	0	31952	
4365	0	32080	
4366	0	32172	
4367	0	32148	
4368	0	31956	
4369	0	31644	
4370	0	31320	
4371	0	31060	
4372	0	30914	
4373	0	31008	
4374	0	31404	
4375	0	31872	
4376	0	32312	
4377	0	32688	
4378	0	32968	
4379	0	33044	
4380	0	32856	
4381	0	32580	
4382	0	32260	
4383	0	31988	
4384	0	32056	
4385	0	32224	
4386	0	32232	
4387	0	32140	
4388	0	32008	
4389	0	31780	
4390	0	31496	
4391	0	31232	
4392	0	31028	
4393	0	31136	
4394	0	31560	
4395	0	32052	
4396	0	32456	
4397	0	32732	
4398	0	32912	
4399	0	33008	
4400	0	32964	
4401	0	32788	
4402	0	32440	
4403	0	32216	
4404	0	32312	
4405	0	32508	
4406	0	32584	
4407	0	32540	
4408	0	32364	
4409	0	32016	
4410	0	31600	
4411	0	31256	
4412	0	30992	
4413	0	30984	
4414	0	31416	
4415	0	32084	
4416	0	32672	
4417	0	33036	
4418	0	33260	
4419	0	33336	
4420	0	33232	
4421	0	32908	
4422	0	32480	
4423	0	32244	
4424	0	32384	
4425	0	32600	
4426	0	32628	
4427	0	32476	
4428	0	32212	
4429	0	31850	
4430	0	31492	
4431	0	31228	
4432	0	30978	
4433	0	30968	
4434	0	31472	
4435	0	32140	
4436	0	32716	
4437	0	33172	
4438	0	33400	
4439	0	33448	
4440	0	33336	
4441	0	33100	
4442	0	32704	
4443	0	32360	
4444	0	32248	
4445	0	32272	
4446	0	32280	
4447	0	32148	
4448	0	31948	
4449	0	31760	
4450	0	31540	
4451	0	31324	
4452	0	31064	
4453	0	31144	
4454	0	31544	
4455	0	32068	
4456	0	32588	
4457	0	33008	
4458	0	33264	
4459	0	33328	
4460	0	33200	
4461	0	32960	
4462	0	32616	
4463	0	32344	
4464	0	32368	
4465	0	32460	
4466	0	32472	
4467	0	32412	
4468	0	32232	
4469	0	31896	
4470	0	31568	
4471	0	31304	
4472	0	31072	
4473	0	31120	
4474	0	31504	
4475	0	32052	
4476	0	32616	
4477	0	33024	
4478	0	33324	
4479	0	33384	
4480	0	33252	
4481	0	33016	
4482	0	32704	
4483	0	32420	
4484	0	32440	
4485	0	32568	
4486	0	32548	
4487	0	32468	
4488	0	32288	
4489	0	32028	
4490	0	31760	
4491	0	31516	
4492	0	31208	
4493	0	31140	
4494	0	31482	
4495	0	32068	
4496	0	32616	
4497	0	33042	
4498	0	33280	
4499	0	33332	
4500	0	33200	
4501	0	32992	
4502	0	32724	
4503	0	32456	
4504	0	32468	
4505	0	32576	
4506	0	32600	
4507	0	32532	
4508	0	32344	
4509	0	32036	
4510	0	31680	
4511	0	31356	
4512	0	31118	
4513	0	31172	
4514	0	31656	
4515	0	32344	
4516	0	32984	
4517	0	33386	
4518	0	33560	
4519	0	33564	
4520	0	33500	
4521	0	33296	
4522	0	32924	
4523	0	32620	
4524	0	32592	
4525	0	32628	
4526	0	32616	
4527	0	32568	
4528	0	32436	
4529	0	32224	
4530	0	31914	
4531	0	31672	
4532	0	31448	
4533	0	31416	
4534	0	31704	
4535	0	32186	
4536	0	32760	
4537	0	33236	
4538	0	33560	
4539	0	33688	
4540	0	33608	
4541	0	33396	
4542	0	33064	
4543	0	32780	
4544	0	32752	
4545	0	32720	
4546	0	32688	
4547	0	32728	
4548	0	32740	
4549	0	32608	
4550	0	32296	
4551	0	31968	
4552	0	31656	
4553	0	31676	
4554	0	32096	
4555	0	32712	
4556	0	33328	
4557	0	33828	
4558	0	34156	
4559	0	34248	
4560	0	34152	
4561	0	33932	
4562	0	33604	
4563	0	33362	
4564	0	33356	
4565	0	33452	
4566	0	33432	
4567	0	33268	
4568	0	33076	
4569	0	32792	
4570	0	32420	
4571	0	32104	
4572	0	31908	
4573	0	32012	
4574	0	32496	
4575	0	33144	
4576	0	33724	
4577	0	34188	
4578	0	34472	
4579	0	34576	
4580	0	34552	
4581	0	34392	
4582	0	34076	
4583	0	33824	
4584	0	33864	
4585	0	34072	
4586	0	34104	
4587	0	34024	
4588	0	33864	
4589	0	33568	
4590	0	33304	
4591	0	33112	
4592	0	32976	
4593	0	32978	
4594	0	33296	
4595	0	33832	
4596	0	34356	
4597	0	34768	
4598	0	35034	
4599	0	35108	
4600	0	34992	
4601	0	34776	
4602	0	34340	
4603	0	33920	
4604	0	33842	
4605	0	33904	
4606	0	33912	
4607	0	33860	
4608	0	33680	
4609	0	33400	
4610	0	33108	
4611	0	32844	
4612	0	32544	
4613	0	32424	
4614	0	32752	
4615	0	33320	
4616	0	33800	
4617	0	34172	
4618	0	34444	
4619	0	34500	
4620	0	34392	
4621	0	34192	
4622	0	33852	
4623	0	33580	
4624	0	33464	
4625	0	33376	
4626	0	33232	
4627	0	32964	
4628	0	32620	
4629	0	32160	
4630	0	31724	
4631	0	31424	
4632	0	31160	
4633	0	31136	
4634	0	31520	
4635	0	32088	
4636	0	32612	
4637	0	33052	
4638	0	33360	
4639	0	33448	
4640	0	33304	
4641	0	32968	
4642	0	32484	
4643	0	32176	
4644	0	32188	
4645	0	32312	
4646	0	32296	
4647	0	32056	
4648	0	31804	
4649	0	31584	
4650	0	31386	
4651	0	31192	
4652	0	30980	
4653	0	30912	
4654	0	31308	
4655	0	32008	
4656	0	32680	
4657	0	33108	
4658	0	33364	
4659	0	33466	
4660	0	33408	
4661	0	33224	
4662	0	32932	
4663	0	32632	
4664	0	32520	
4665	0	32584	
4666	0	32626	
4667	0	32604	
4668	0	32568	
4669	0	32352	
4670	0	31924	
4671	0	31504	
4672	0	31104	
4673	0	30914	
4674	0	31148	
4675	0	31688	
4676	0	32292	
4677	0	32804	
4678	0	33128	
4679	0	33252	
4680	0	33216	
4681	0	33096	
4682	0	32760	
4683	0	32416	
4684	0	32404	
4685	0	32536	
4686	0	32704	
4687	0	32764	
4688	0	32672	
4689	0	32308	
4690	0	31880	
4691	0	31572	
4692	0	31336	
4693	0	31348	
4694	0	31724	
4695	0	32352	
4696	0	33084	
4697	0	33760	
4698	0	34288	
4699	0	34536	
4700	0	34512	
4701	0	34416	
4702	0	34304	
4703	0	34320	
4704	0	34712	
4705	0	35288	
4706	0	35664	
4707	0	35836	
4708	0	35856	
4709	0	35780	
4710	0	35604	
4711	0	35516	
4712	0	35392	
4713	0	35540	
4714	0	36060	
4715	0	36868	
4716	0	37776	
4717	0	38784	
4718	0	39840	
4719	0	40844	
4720	0	41588	
4721	0	42072	
4722	0	42128	
4723	0	41928	
4724	0	41760	
4725	0	41628	
4726	0	41256	
4727	0	40676	
4728	0	39852	
4729	0	38848	
4730	0	37912	
4731	0	37136	
4732	0	36684	
4733	0	36432	
4734	0	36396	
4735	0	36468	
4736	0	36664	
4737	0	36940	
4738	0	37136	
4739	0	37216	
4740	0	37048	
4741	0	36676	
4742	0	36136	
4743	0	35512	
4744	0	35080	
4745	0	34844	
4746	0	34528	
4747	0	34112	
4748	0	33592	
4749	0	33000	
4750	0	32304	
4751	0	31668	
4752	0	31120	
4753	0	30852	
4754	0	30944	
4755	0	31320	
4756	0	31784	
4757	0	32216	
4758	0	32524	
4759	0	32680	
4760	0	32704	
4761	0	32544	
4762	0	32208	
4763	0	31824	
4764	0	31688	
4765	0	31756	
4766	0	31780	
4767	0	31632	
4768	0	31456	
4769	0	31200	
4770	0	30848	
4771	0	30500	
4772	0	30168	
4773	0	30012	
4774	0	30240	
4775	0	30820	
4776	0	31416	
4777	0	31932	
4778	0	32160	
4779	0	32308	
4780	0	32268	
4781	0	32120	
4782	0	31820	
4783	0	31536	
4784	0	31544	
4785	0	31610	
4786	0	31676	
4787	0	31724	
4788	0	31592	
4789	0	31408	
4790	0	31080	
4791	0	30648	
4792	0	30240	
4793	0	30064	
4794	0	30364	
4795	0	30984	
4796	0	31536	
4797	0	31932	
4798	0	32244	
4799	0	32460	
4800	0	32448	
4801	0	32248	
4802	0	31912	
4803	0	31464	
4804	0	31392	
4805	0	31536	
4806	0	31626	
4807	0	31604	
4808	0	31476	
4809	0	31256	
4810	0	30924	
4811	0	30640	
4812	0	30472	
4813	0	30396	
4814	0	30736	
4815	0	31416	
4816	0	32008	
4817	0	32464	
4818	0	32744	
4819	0	32796	
4820	0	32760	
4821	0	32584	
4822	0	32288	
4823	0	31984	
4824	0	31888	
4825	0	31944	
4826	0	31936	
4827	0	31872	
4828	0	31777	
4829	0	31576	
4830	0	31324	
4831	0	31004	
4832	0	30652	
4833	0	30464	
4834	0	30748	
4835	0	31396	
4836	0	32012	
4837	0	32536	
4838	0	32804	
4839	0	32940	
4840	0	32968	
4841	0	32804	
4842	0	32520	
4843	0	32252	
4844	0	32162	
4845	0	32176	
4846	0	32244	
4847	0	32240	
4848	0	32100	
4849	0	31824	
4850	0	31376	
4851	0	30956	
4852	0	30624	
4853	0	30464	
4854	0	30684	
4855	0	31176	
4856	0	31716	
4857	0	32192	
4858	0	32600	
4859	0	32864	
4860	0	32800	
4861	0	32536	
4862	0	32264	
4863	0	31968	
4864	0	31932	
4865	0	32096	
4866	0	32144	
4867	0	32034	
4868	0	31808	
4869	0	31500	
4870	0	31116	
4871	0	30748	
4872	0	30466	
4873	0	30408	
4874	0	30768	
4875	0	31432	
4876	0	31984	
4877	0	32388	
4878	0	32652	
4879	0	32864	
4880	0	33000	
4881	0	33002	
4882	0	32800	
4883	0	32440	
4884	0	32240	
4885	0	32304	
4886	0	32336	
4887	0	32240	
4888	0	32056	
4889	0	31828	
4890	0	31568	
4891	0	31268	
4892	0	31064	
4893	0	30992	
4894	0	31256	
4895	0	31812	
4896	0	32360	
4897	0	32944	
4898	0	33428	
4899	0	33756	
4900	0	33720	
4901	0	33492	
4902	0	33168	
4903	0	32732	
4904	0	32608	
4905	0	32736	
4906	0	32724	
4907	0	32610	
4908	0	32460	
4909	0	32240	
4910	0	31940	
4911	0	31600	
4912	0	31312	
4913	0	31200	
4914	0	31472	
4915	0	32072	
4916	0	32716	
4917	0	33260	
4918	0	33652	
4919	0	33892	
4920	0	33880	
4921	0	33682	
4922	0	33388	
4923	0	33088	
4924	0	32956	
4925	0	33004	
4926	0	33000	
4927	0	32976	
4928	0	32864	
4929	0	32520	
4930	0	32068	
4931	0	31732	
4932	0	31464	
4933	0	31356	
4934	0	31656	
4935	0	32308	
4936	0	32968	
4937	0	33476	
4938	0	33776	
4939	0	33920	
4940	0	33880	
4941	0	33744	
4942	0	33488	
4943	0	33168	
4944	0	33052	
4945	0	33124	
4946	0	33232	
4947	0	33300	
4948	0	33272	
4949	0	33060	
4950	0	32764	
4951	0	32488	
4952	0	32164	
4953	0	31968	
4954	0	32210	
4955	0	32792	
4956	0	33388	
4957	0	33872	
4958	0	34216	
4959	0	34436	
4960	0	34416	
4961	0	34232	
4962	0	33924	
4963	0	33548	
4964	0	33480	
4965	0	33700	
4966	0	33884	
4967	0	33972	
4968	0	33920	
4969	0	33688	
4970	0	33240	
4971	0	32796	
4972	0	32432	
4973	0	32262	
4974	0	32480	
4975	0	33068	
4976	0	33736	
4977	0	34352	
4978	0	34744	
4979	0	34908	
4980	0	34816	
4981	0	34600	
4982	0	34240	
4983	0	33840	
4984	0	33712	
4985	0	33836	
4986	0	33948	
4987	0	33920	
4988	0	33744	
4989	0	33328	
4990	0	32888	
4991	0	32540	
4992	0	32168	
4993	0	31948	
4994	0	32160	
4995	0	32752	
4996	0	33404	
4997	0	33928	
4998	0	34352	
4999	0	34588	
5000	0	34592	
5001	0	34404	
5002	0	33972	
5003	0	33492	
5004	0	33308	
5005	0	33336	
5006	0	33360	
5007	0	33272	
5008	0	33064	
5009	0	32736	
5010	0	32264	
5011	0	31820	
5012	0	31368	
5013	0	31064	
5014	0	31184	
5015	0	31672	
5016	0	32304	
5017	0	32832	
5018	0	33184	
5019	0	33360	
5020	0	33312	
5021	0	33056	
5022	0	32656	
5023	0	32164	
5024	0	32020	
5025	0	32064	
5026	0	32138	
5027	0	32168	
5028	0	32084	
5029	0	31792	
5030	0	31320	
5031	0	30808	
5032	0	30376	
5033	0	30074	
5034	0	30264	
5035	0	30868	
5036	0	31568	
5037	0	32196	
5038	0	32584	
5039	0	32688	
5040	0	32560	
5041	0	32252	
5042	0	31876	
5043	0	31456	
5044	0	31324	
5045	0	31424	
5046	0	31520	
5047	0	31358	
5048	0	31160	
5049	0	30908	
5050	0	30514	
5051	0	30072	
5052	0	29660	
5053	0	29436	
5054	0	29624	
5055	0	30204	
5056	0	30896	
5057	0	31504	
5058	0	31912	
5059	0	32160	
5060	0	32200	
5061	0	32072	
5062	0	31724	
5063	0	31260	
5064	0	31086	
5065	0	31204	
5066	0	31320	
5067	0	31248	
5068	0	31036	
5069	0	30726	
5070	0	30316	
5071	0	29964	
5072	0	29648	
5073	0	29468	
5074	0	29656	
5075	0	30264	
5076	0	30982	
5077	0	31552	
5078	0	32008	
5079	0	32290	
5080	0	32296	
5081	0	32140	
5082	0	31920	
5083	0	31576	
5084	0	31420	
5085	0	31524	
5086	0	31640	
5087	0	31524	
5088	0	31280	
5089	0	31052	
5090	0	30744	
5091	0	30326	
5092	0	29944	
5093	0	29632	
5094	0	29808	
5095	0	30372	
5096	0	31092	
5097	0	31720	
5098	0	32096	
5099	0	32312	
5100	0	32408	
5101	0	32382	
5102	0	32196	
5103	0	31776	
5104	0	31512	
5105	0	31576	
5106	0	31628	
5107	0	31576	
5108	0	31464	
5109	0	31254	
5110	0	30888	
5111	0	30540	
5112	0	30220	
5113	0	30024	
5114	0	30180	
5115	0	30672	
5116	0	31368	
5117	0	32050	
5118	0	32504	
5119	0	32800	
5120	0	32844	
5121	0	32668	
5122	0	32376	
5123	0	32064	
5124	0	31908	
5125	0	31988	
5126	0	32060	
5127	0	31960	
5128	0	31728	
5129	0	31450	
5130	0	31116	
5131	0	30760	
5132	0	30408	
5133	0	30152	
5134	0	30308	
5135	0	30880	
5136	0	31584	
5137	0	32232	
5138	0	32748	
5139	0	33008	
5140	0	32972	
5141	0	32648	
5142	0	32208	
5143	0	31812	
5144	0	31692	
5145	0	31828	
5146	0	31996	
5147	0	32012	
5148	0	31964	
5149	0	31772	
5150	0	31372	
5151	0	30964	
5152	0	30656	
5153	0	30464	
5154	0	30656	
5155	0	31204	
5156	0	31840	
5157	0	32472	
5158	0	32996	
5159	0	33344	
5160	0	33428	
5161	0	33196	
5162	0	32752	
5163	0	32328	
5164	0	32144	
5165	0	32240	
5166	0	32340	
5167	0	32276	
5168	0	32036	
5169	0	31648	
5170	0	31212	
5171	0	30832	
5172	0	30404	
5173	0	30124	
5174	0	30272	
5175	0	30840	
5176	0	31564	
5177	0	32248	
5178	0	32752	
5179	0	33052	
5180	0	33064	
5181	0	32940	
5182	0	32664	
5183	0	32264	
5184	0	32048	
5185	0	32164	
5186	0	32408	
5187	0	32444	
5188	0	32328	
5189	0	32024	
5190	0	31588	
5191	0	31162	
5192	0	30796	
5193	0	30500	
5194	0	30548	
5195	0	31016	
5196	0	31656	
5197	0	32260	
5198	0	32780	
5199	0	33148	
5200	0	33304	
5201	0	33208	
5202	0	32870	
5203	0	32368	
5204	0	32052	
5205	0	32060	
5206	0	32200	
5207	0	32352	
5208	0	32344	
5209	0	32136	
5210	0	31712	
5211	0	31296	
5212	0	30944	
5213	0	30648	
5214	0	30720	
5215	0	31241	
5216	0	31920	
5217	0	32588	
5218	0	33096	
5219	0	33448	
5220	0	33536	
5221	0	33440	
5222	0	33132	
5223	0	32728	
5224	0	32512	
5225	0	32556	
5226	0	32676	
5227	0	32760	
5228	0	32684	
5229	0	32388	
5230	0	31916	
5231	0	31464	
5232	0	31072	
5233	0	30800	
5234	0	30932	
5235	0	31484	
5236	0	32140	
5237	0	32744	
5238	0	33164	
5239	0	33492	
5240	0	33592	
5241	0	33492	
5242	0	33196	
5243	0	32816	
5244	0	32616	
5245	0	32736	
5246	0	32852	
5247	0	32812	
5248	0	32648	
5249	0	32372	
5250	0	31968	
5251	0	31504	
5252	0	31029	
5253	0	30728	
5254	0	30856	
5255	0	31376	
5256	0	32108	
5257	0	32848	
5258	0	33474	
5259	0	33788	
5260	0	33796	
5261	0	33690	
5262	0	33444	
5263	0	33028	
5264	0	32728	
5265	0	32836	
5266	0	33036	
5267	0	33052	
5268	0	32856	
5269	0	32592	
5270	0	32156	
5271	0	31640	
5272	0	31168	
5273	0	30908	
5274	0	31020	
5275	0	31544	
5276	0	32252	
5277	0	32920	
5278	0	33424	
5279	0	33744	
5280	0	33768	
5281	0	33612	
5282	0	33336	
5283	0	32960	
5284	0	32780	
5285	0	32928	
5286	0	33120	
5287	0	33140	
5288	0	32956	
5289	0	32612	
5290	0	32212	
5291	0	31772	
5292	0	31388	
5293	0	31140	
5294	0	31288	
5295	0	31796	
5296	0	32508	
5297	0	33184	
5298	0	33660	
5299	0	33908	
5300	0	33964	
5301	0	33840	
5302	0	33530	
5303	0	33104	
5304	0	32800	
5305	0	32852	
5306	0	32992	
5307	0	33000	
5308	0	32896	
5309	0	32704	
5310	0	32336	
5311	0	31908	
5312	0	31520	
5313	0	31248	
5314	0	31352	
5315	0	31888	
5316	0	32640	
5317	0	33344	
5318	0	33824	
5319	0	34096	
5320	0	34164	
5321	0	34016	
5322	0	33752	
5323	0	33356	
5324	0	33052	
5325	0	33144	
5326	0	33296	
5327	0	33248	
5328	0	33088	
5329	0	32912	
5330	0	32714	
5331	0	32392	
5332	0	31944	
5333	0	31617	
5334	0	31678	
5335	0	32176	
5336	0	32872	
5337	0	33432	
5338	0	33856	
5339	0	34204	
5340	0	34296	
5341	0	34240	
5342	0	34020	
5343	0	33640	
5344	0	33368	
5345	0	33492	
5346	0	33784	
5347	0	33900	
5348	0	33928	
5349	0	33860	
5350	0	33604	
5351	0	33220	
5352	0	32768	
5353	0	32362	
5354	0	32264	
5355	0	32668	
5356	0	33440	
5357	0	34232	
5358	0	34784	
5359	0	35144	
5360	0	35248	
5361	0	35008	
5362	0	34668	
5363	0	34320	
5364	0	34092	
5365	0	34240	
5366	0	34464	
5367	0	34496	
5368	0	34456	
5369	0	34160	
5370	0	33700	
5371	0	33240	
5372	0	32820	
5373	0	32442	
5374	0	32384	
5375	0	32804	
5376	0	33464	
5377	0	34136	
5378	0	34656	
5379	0	34976	
5380	0	34944	
5381	0	34808	
5382	0	34544	
5383	0	34124	
5384	0	33776	
5385	0	33840	
5386	0	33944	
5387	0	33864	
5388	0	33660	
5389	0	33328	
5390	0	32844	
5391	0	32308	
5392	0	31768	
5393	0	31284	
5394	0	31148	
5395	0	31456	
5396	0	32080	
5397	0	32808	
5398	0	33336	
5399	0	33648	
5400	0	33632	
5401	0	33496	
5402	0	33224	
5403	0	32792	
5404	0	32412	
5405	0	32448	
5406	0	32696	
5407	0	32808	
5408	0	32724	
5409	0	32536	
5410	0	32176	
5411	0	31728	
5412	0	31185	
5413	0	30680	
5414	0	30684	
5415	0	31240	
5416	0	32064	
5417	0	32882	
5418	0	33428	
5419	0	33760	
5420	0	33798	
5421	0	33628	
5422	0	33392	
5423	0	33008	
5424	0	32668	
5425	0	32652	
5426	0	32818	
5427	0	32836	
5428	0	32736	
5429	0	32554	
5430	0	32224	
5431	0	31792	
5432	0	31312	
5433	0	30892	
5434	0	30776	
5435	0	31224	
5436	0	32008	
5437	0	32812	
5438	0	33404	
5439	0	33696	
5440	0	33824	
5441	0	33700	
5442	0	33404	
5443	0	32988	
5444	0	32626	
5445	0	32576	
5446	0	32780	
5447	0	32900	
5448	0	32856	
5449	0	32656	
5450	0	32344	
5451	0	31892	
5452	0	31464	
5453	0	31068	
5454	0	31016	
5455	0	31512	
5456	0	32292	
5457	0	33044	
5458	0	33548	
5459	0	33812	
5460	0	33860	
5461	0	33738	
5462	0	33528	
5463	0	33256	
5464	0	33080	
5465	0	33364	
5466	0	33760	
5467	0	33976	
5468	0	33976	
5469	0	33884	
5470	0	33756	
5471	0	33584	
5472	0	33452	
5473	0	33484	
5474	0	33716	
5475	0	34392	
5476	0	35284	
5477	0	36168	
5478	0	36904	
5479	0	37466	
5480	0	37912	
5481	0	38148	
5482	0	38200	
5483	0	38176	
5484	0	38400	
5485	0	39120	
5486	0	40088	
5487	0	40952	
5488	0	41632	
5489	0	41892	
5490	0	41752	
5491	0	41340	
5492	0	40608	
5493	0	39688	
5494	0	38840	
5495	0	38504	
5496	0	38576	
5497	0	38824	
5498	0	39124	
5499	0	39216	
5500	0	39092	
5501	0	38680	
5502	0	37976	
5503	0	37236	
5504	0	36660	
5505	0	36512	
5506	0	36488	
5507	0	36376	
5508	0	36164	
5509	0	35696	
5510	0	35040	
5511	0	34328	
5512	0	33600	
5513	0	32916	
5514	0	32528	
5515	0	32628	
5516	0	33044	
5517	0	33456	
5518	0	33700	
5519	0	33812	
5520	0	33736	
5521	0	33456	
5522	0	33074	
5523	0	32594	
5524	0	32180	
5525	0	32196	
5526	0	32428	
5527	0	32512	
5528	0	32368	
5529	0	32024	
5530	0	31560	
5531	0	31076	
5532	0	30568	
5533	0	30160	
5534	0	30004	
5535	0	30372	
5536	0	31072	
5537	0	31808	
5538	0	32436	
5539	0	32808	
5540	0	32932	
5541	0	32832	
5542	0	32532	
5543	0	32176	
5544	0	31800	
5545	0	31716	
5546	0	31900	
5547	0	32008	
5548	0	31972	
5549	0	31706	
5550	0	31278	
5551	0	30856	
5552	0	30448	
5553	0	30096	
5554	0	30028	
5555	0	30392	
5556	0	30976	
5557	0	31640	
5558	0	32180	
5559	0	32504	
5560	0	32745	
5561	0	32724	
5562	0	32472	
5563	0	32016	
5564	0	31616	
5565	0	31584	
5566	0	31744	
5567	0	31910	
5568	0	31832	
5569	0	31592	
5570	0	31272	
5571	0	30876	
5572	0	30520	
5573	0	30192	
5574	0	30056	
5575	0	30464	
5576	0	31220	
5577	0	31992	
5578	0	32660	
5579	0	33128	
5580	0	33340	
5581	0	33244	
5582	0	33028	
5583	0	32684	
5584	0	32204	
5585	0	32068	
5586	0	32196	
5587	0	32312	
5588	0	32276	
5589	0	32112	
5590	0	31808	
5591	0	31400	
5592	0	31000	
5593	0	30624	
5594	0	30456	
5595	0	30876	
5596	0	31600	
5597	0	32352	
5598	0	32948	
5599	0	33368	
5600	0	33500	
5601	0	33424	
5602	0	33152	
5603	0	32704	
5604	0	32260	
5605	0	32204	
5606	0	32408	
5607	0	32524	
5608	0	32500	
5609	0	32324	
5610	0	31972	
5611	0	31516	
5612	0	31156	
5613	0	30896	
5614	0	30796	
5615	0	31120	
5616	0	31800	
5617	0	32568	
5618	0	33240	
5619	0	33712	
5620	0	33952	
5621	0	33860	
5622	0	33512	
5623	0	33112	
5624	0	32760	
5625	0	32736	
5626	0	32932	
5627	0	33008	
5628	0	32916	
5629	0	32684	
5630	0	32328	
5631	0	31898	
5632	0	31488	
5633	0	31076	
5634	0	30936	
5635	0	31356	
5636	0	32056	
5637	0	32812	
5638	0	33388	
5639	0	33792	
5640	0	34020	
5641	0	34060	
5642	0	33884	
5643	0	33484	
5644	0	33068	
5645	0	32940	
5646	0	33020	
5647	0	33056	
5648	0	32960	
5649	0	32736	
5650	0	32456	
5651	0	32036	
5652	0	31640	
5653	0	31276	
5654	0	31204	
5655	0	31600	
5656	0	32340	
5657	0	33184	
5658	0	33832	
5659	0	34224	
5660	0	34420	
5661	0	34372	
5662	0	34120	
5663	0	33724	
5664	0	33380	
5665	0	33374	
5666	0	33520	
5667	0	33544	
5668	0	33508	
5669	0	33345	
5670	0	33012	
5671	0	32584	
5672	0	32200	
5673	0	31884	
5674	0	31772	
5675	0	32152	
5676	0	32842	
5677	0	33600	
5678	0	34228	
5679	0	34648	
5680	0	34864	
5681	0	34840	
5682	0	34598	
5683	0	34128	
5684	0	33632	
5685	0	33604	
5686	0	33848	
5687	0	33960	
5688	0	33940	
5689	0	33724	
5690	0	33308	
5691	0	32812	
5692	0	32340	
5693	0	31968	
5694	0	31860	
5695	0	32296	
5696	0	33064	
5697	0	33904	
5698	0	34648	
5699	0	35092	
5700	0	35338	
5701	0	35260	
5702	0	34972	
5703	0	34544	
5704	0	34164	
5705	0	34206	
5706	0	34468	
5707	0	34672	
5708	0	34664	
5709	0	34468	
5710	0	34052	
5711	0	33458	
5712	0	32944	
5713	0	32496	
5714	0	32264	
5715	0	32572	
5716	0	33372	
5717	0	34224	
5718	0	34872	
5719	0	35308	
5720	0	35504	
5721	0	35556	
5722	0	35392	
5723	0	34996	
5724	0	34576	
5725	0	34536	
5726	0	34760	
5727	0	34944	
5728	0	34880	
5729	0	34612	
5730	0	34204	
5731	0	33704	
5732	0	33200	
5733	0	32764	
5734	0	32520	
5735	0	32778	
5736	0	33448	
5737	0	34216	
5738	0	34852	
5739	0	35328	
5740	0	35560	
5741	0	35556	
5742	0	35366	
5743	0	35016	
5744	0	34624	
5745	0	34520	
5746	0	34624	
5747	0	34616	
5748	0	34608	
5749	0	34500	
5750	0	34228	
5751	0	33820	
5752	0	33344	
5753	0	32946	
5754	0	32768	
5755	0	33056	
5756	0	33664	
5757	0	34360	
5758	0	34984	
5759	0	35424	
5760	0	35660	
5761	0	35604	
5762	0	35300	
5763	0	34872	
5764	0	34456	
5765	0	34280	
5766	0	34360	
5767	0	34416	
5768	0	34324	
5769	0	34056	
5770	0	33696	
5771	0	33288	
5772	0	32880	
5773	0	32468	
5774	0	32216	
5775	0	32412	
5776	0	32928	
5777	0	33580	
5778	0	34216	
5779	0	34616	
5780	0	34840	
5781	0	34796	
5782	0	34524	
5783	0	34056	
5784	0	33472	
5785	0	33232	
5786	0	33304	
5787	0	33340	
5788	0	33216	
5789	0	33010	
5790	0	32668	
5791	0	32148	
5792	0	31608	
5793	0	31160	
5794	0	30908	
5795	0	31176	
5796	0	31796	
5797	0	32468	
5798	0	33076	
5799	0	33528	
5800	0	33736	
5801	0	33652	
5802	0	33360	
5803	0	32864	
5804	0	32308	
5805	0	32084	
5806	0	32136	
5807	0	32160	
5808	0	32052	
5809	0	31848	
5810	0	31488	
5811	0	31060	
5812	0	30642	
5813	0	30244	
5814	0	30032	
5815	0	30244	
5816	0	30852	
5817	0	31640	
5818	0	32352	
5819	0	32744	
5820	0	32968	
5821	0	32968	
5822	0	32728	
5823	0	32356	
5824	0	31924	
5825	0	31802	
5826	0	31976	
5827	0	32080	
5828	0	31992	
5829	0	31760	
5830	0	31409	
5831	0	30900	
5832	0	30440	
5833	0	30004	
5834	0	29744	
5835	0	29920	
5836	0	30552	
5837	0	31328	
5838	0	31996	
5839	0	32484	
5840	0	32780	
5841	0	32772	
5842	0	32516	
5843	0	32108	
5844	0	31662	
5845	0	31568	
5846	0	31772	
5847	0	31912	
5848	0	31900	
5849	0	31732	
5850	0	31420	
5851	0	30920	
5852	0	30400	
5853	0	29984	
5854	0	29708	
5855	0	29976	
5856	0	30700	
5857	0	31464	
5858	0	32124	
5859	0	32634	
5860	0	32936	
5861	0	32944	
5862	0	32772	
5863	0	32376	
5864	0	31912	
5865	0	31812	
5866	0	31976	
5867	0	32136	
5868	0	32124	
5869	0	32020	
5870	0	31740	
5871	0	31332	
5872	0	30848	
5873	0	30408	
5874	0	30156	
5875	0	30376	
5876	0	31012	
5877	0	31740	
5878	0	32432	
5879	0	32912	
5880	0	33152	
5881	0	33112	
5882	0	32912	
5883	0	32608	
5884	0	32228	
5885	0	32112	
5886	0	32192	
5887	0	32224	
5888	0	32228	
5889	0	32096	
5890	0	31784	
5891	0	31392	
5892	0	30960	
5893	0	30540	
5894	0	30312	
5895	0	30524	
5896	0	31144	
5897	0	31880	
5898	0	32488	
5899	0	32968	
5900	0	33288	
5901	0	33296	
5902	0	33136	
5903	0	32768	
5904	0	32324	
5905	0	32212	
5906	0	32424	
5907	0	32620	
5908	0	32740	
5909	0	32648	
5910	0	32280	
5911	0	31792	
5912	0	31308	
5913	0	30824	
5914	0	30464	
5915	0	30572	
5916	0	31160	
5917	0	31896	
5918	0	32552	
5919	0	33004	
5920	0	33264	
5921	0	33276	
5922	0	33032	
5923	0	32672	
5924	0	32312	
5925	0	32204	
5926	0	32412	
5927	0	32608	
5928	0	32600	
5929	0	32476	
5930	0	32188	
5931	0	31728	
5932	0	31194	
5933	0	30760	
5934	0	30412	
5935	0	30628	
5936	0	31348	
5937	0	32116	
5938	0	32748	
5939	0	33200	
5940	0	33468	
5941	0	33480	
5942	0	33316	
5943	0	32952	
5944	0	32492	
5945	0	32360	
5946	0	32448	
5947	0	32612	
5948	0	32682	
5949	0	32560	
5950	0	32288	
5951	0	31856	
5952	0	31428	
5953	0	31012	
5954	0	30768	
5955	0	30968	
5956	0	31672	
5957	0	32396	
5958	0	32976	
5959	0	33372	
5960	0	33492	
5961	0	33432	
5962	0	33264	
5963	0	32936	
5964	0	32468	
5965	0	32208	
5966	0	32292	
5967	0	32480	
5968	0	32522	
5969	0	32444	
5970	0	32212	
5971	0	31796	
5972	0	31316	
5973	0	30868	
5974	0	30528	
5975	0	30720	
5976	0	31410	
5977	0	32196	
5978	0	32912	
5979	0	33464	
5980	0	33772	
5981	0	33784	
5982	0	33512	
5983	0	33066	
5984	0	32528	
5985	0	32352	
5986	0	32480	
5987	0	32596	
5988	0	32576	
5989	0	32432	
5990	0	32152	
5991	0	31736	
5992	0	31322	
5993	0	30952	
5994	0	30680	
5995	0	30818	
5996	0	31324	
5997	0	31992	
5998	0	32608	
5999	0	33096	
6000	0	33480	
6001	0	33624	
6002	0	33524	
6003	0	33276	
6004	0	32848	
6005	0	32644	
6006	0	32776	
6007	0	32952	
6008	0	32880	
6009	0	32712	
6010	0	32484	
6011	0	32120	
6012	0	31704	
6013	0	31304	
6014	0	30984	
6015	0	31108	
6016	0	31700	
6017	0	32492	
6018	0	33184	
6019	0	33616	
6020	0	33908	
6021	0	33968	
6022	0	33812	
6023	0	33452	
6024	0	32948	
6025	0	32656	
6026	0	32704	
6027	0	32856	
6028	0	32868	
6029	0	32764	
6030	0	32552	
6031	0	32148	
6032	0	31644	
6033	0	31156	
6034	0	30812	
6035	0	30890	
6036	0	31484	
6037	0	32312	
6038	0	33072	
6039	0	33620	
6040	0	33944	
6041	0	33908	
6042	0	33704	
6043	0	33392	
6044	0	33012	
6045	0	32840	
6046	0	32936	
6047	0	33048	
6048	0	32988	
6049	0	32756	
6050	0	32440	
6051	0	31984	
6052	0	31556	
6053	0	31164	
6054	0	30900	
6055	0	30994	
6056	0	31484	
6057	0	32164	
6058	0	32856	
6059	0	33448	
6060	0	33856	
6061	0	33956	
6062	0	33856	
6063	0	33568	
6064	0	33168	
6065	0	33040	
6066	0	33252	
6067	0	33498	
6068	0	33544	
6069	0	33384	
6070	0	33070	
6071	0	32568	
6072	0	32080	
6073	0	31672	
6074	0	31372	
6075	0	31498	
6076	0	32088	
6077	0	32836	
6078	0	33524	
6079	0	34064	
6080	0	34392	
6081	0	34492	
6082	0	34404	
6083	0	34092	
6084	0	33652	
6085	0	33400	
6086	0	33418	
6087	0	33592	
6088	0	33692	
6089	0	33644	
6090	0	33480	
6091	0	33100	
6092	0	32704	
6093	0	32352	
6094	0	32156	
6095	0	32332	
6096	0	32896	
6097	0	33632	
6098	0	34388	
6099	0	34984	
6100	0	35316	
6101	0	35384	
6102	0	35244	
6103	0	34916	
6104	0	34420	
6105	0	34128	
6106	0	34184	
6107	0	34348	
6108	0	34368	
6109	0	34184	
6110	0	33832	
6111	0	33284	
6112	0	32736	
6113	0	32256	
6114	0	31912	
6115	0	32032	
6116	0	32648	
6117	0	33448	
6118	0	34180	
6119	0	34700	
6120	0	34972	
6121	0	34920	
6122	0	34765	
6123	0	34424	
6124	0	33888	
6125	0	33580	
6126	0	33668	
6127	0	33836	
6128	0	33768	
6129	0	33608	
6130	0	33328	
6131	0	32938	
6132	0	32440	
6133	0	31868	
6134	0	31360	
6135	0	31240	
6136	0	31628	
6137	0	32268	
6138	0	32940	
6139	0	33474	
6140	0	33804	
6141	0	33844	
6142	0	33680	
6143	0	33332	
6144	0	32874	
6145	0	32584	
6146	0	32632	
6147	0	32784	
6148	0	32864	
6149	0	32776	
6150	0	32458	
6151	0	31984	
6152	0	31448	
6153	0	30956	
6154	0	30522	
6155	0	30530	
6156	0	31124	
6157	0	31920	
6158	0	32712	
6159	0	33364	
6160	0	33792	
6161	0	33880	
6162	0	33720	
6163	0	33384	
6164	0	32914	
6165	0	32600	
6166	0	32648	
6167	0	32824	
6168	0	32912	
6169	0	32840	
6170	0	32540	
6171	0	32080	
6172	0	31588	
6173	0	31128	
6174	0	30804	
6175	0	30912	
6176	0	31472	
6177	0	32256	
6178	0	32952	
6179	0	33420	
6180	0	33680	
6181	0	33616	
6182	0	33456	
6183	0	33168	
6184	0	32712	
6185	0	32432	
6186	0	32540	
6187	0	32740	
6188	0	32800	
6189	0	32760	
6190	0	32552	
6191	0	32128	
6192	0	31684	
6193	0	31296	
6194	0	30972	
6195	0	31020	
6196	0	31512	
6197	0	32268	
6198	0	33036	
6199	0	33570	
6200	0	33908	
6201	0	33980	
6202	0	33856	
6203	0	33584	
6204	0	33172	
6205	0	32944	
6206	0	33036	
6207	0	33248	
6208	0	33344	
6209	0	33296	
6210	0	33106	
6211	0	32744	
6212	0	32320	
6213	0	31976	
6214	0	31844	
6215	0	32192	
6216	0	33080	
6217	0	34180	
6218	0	35200	
6219	0	36016	
6220	0	36684	
6221	0	37096	
6222	0	37308	
6223	0	37344	
6224	0	37200	
6225	0	37168	
6226	0	37502	
6227	0	37988	
6228	0	38536	
6229	0	39124	
6230	0	39712	
6231	0	40128	
6232	0	40416	
6233	0	40412	
6234	0	40164	
6235	0	40056	
6236	0	40280	
6237	0	40496	
6238	0	40476	
6239	0	40224	
6240	0	39866	
6241	0	39400	
6242	0	38872	
6243	0	38316	
6244	0	37748	
6245	0	37328	
6246	0	37108	
6247	0	36996	
6248	0	36788	
6249	0	36400	
6250	0	35972	
6251	0	35352	
6252	0	34636	
6253	0	33928	
6254	0	33324	
6255	0	33096	
6256	0	33412	
6257	0	33962	
6258	0	34540	
6259	0	34848	
6260	0	34888	
6261	0	34644	
6262	0	34176	
6263	0	33580	
6264	0	32944	
6265	0	32448	
6266	0	32332	
6267	0	32352	
6268	0	32292	
6269	0	32168	
6270	0	31930	
6271	0	31480	
6272	0	30940	
6273	0	30408	
6274	0	30020	
6275	0	29968	
6276	0	30384	
6277	0	31104	
6278	0	31908	
6279	0	32514	
6280	0	32856	
6281	0	32888	
6282	0	32706	
6283	0	32324	
6284	0	31816	
6285	0	31456	
6286	0	31524	
6287	0	31722	
6288	0	31776	
6289	0	31688	
6290	0	31436	
6291	0	30960	
6292	0	30442	
6293	0	29952	
6294	0	29516	
6295	0	29488	
6296	0	30032	
6297	0	30812	
6298	0	31632	
6299	0	32304	
6300	0	32784	
6301	0	32980	
6302	0	32864	
6303	0	32544	
6304	0	32076	
6305	0	31736	
6306	0	31800	
6307	0	31968	
6308	0	32000	
6309	0	31962	
6310	0	31768	
6311	0	31328	
6312	0	30844	
6313	0	30332	
6314	0	29936	
6315	0	29922	
6316	0	30436	
6317	0	31272	
6318	0	32080	
6319	0	32712	
6320	0	33108	
6321	0	33220	
6322	0	33100	
6323	0	32760	
6324	0	32300	
6325	0	31928	
6326	0	31980	
6327	0	32192	
6328	0	32256	
6329	0	32224	
6330	0	31984	
6331	0	31604	
6332	0	31144	
6333	0	30666	
6334	0	30276	
6335	0	30248	
6336	0	30720	
6337	0	31392	
6338	0	32060	
6339	0	32600	
6340	0	32992	
6341	0	33224	
6342	0	33232	
6343	0	32996	
6344	0	32564	
6345	0	32252	
6346	0	32328	
6347	0	32492	
6348	0	32512	
6349	0	32404	
6350	0	32112	
6351	0	31640	
6352	0	31152	
6353	0	30652	
6354	0	30300	
6355	0	30304	
6356	0	30824	
6357	0	31648	
6358	0	32400	
6359	0	33088	
6360	0	33528	
6361	0	33694	
6362	0	33604	
6363	0	33352	
6364	0	32968	
6365	0	32644	
6366	0	32736	
6367	0	32904	
6368	0	32920	
6369	0	32840	
6370	0	32616	
6371	0	32160	
6372	0	31640	
6373	0	31188	
6374	0	30844	
6375	0	30716	
6376	0	31136	
6377	0	31884	
6378	0	32732	
6379	0	33492	
6380	0	33960	
6381	0	34152	
6382	0	34080	
6383	0	33792	
6384	0	33316	
6385	0	32960	
6386	0	33056	
6387	0	33328	
6388	0	33332	
6389	0	33240	
6390	0	32992	
6391	0	32568	
6392	0	32120	
6393	0	31704	
6394	0	31292	
6395	0	31216	
6396	0	31644	
6397	0	32392	
6398	0	33180	
6399	0	33816	
6400	0	34260	
6401	0	34392	
6402	0	34276	
6403	0	34000	
6404	0	33600	
6405	0	33256	
6406	0	33264	
6407	0	33444	
6408	0	33524	
6409	0	33408	
6410	0	33184	
6411	0	32706	
6412	0	32120	
6413	0	31664	
6414	0	31340	
6415	0	31316	
6416	0	31824	
6417	0	32634	
6418	0	33424	
6419	0	34056	
6420	0	34536	
6421	0	34796	
6422	0	34772	
6423	0	34402	
6424	0	33840	
6425	0	33404	
6426	0	33408	
6427	0	33572	
6428	0	33700	
6429	0	33644	
6430	0	33500	
6431	0	33176	
6432	0	32724	
6433	0	32284	
6434	0	31956	
6435	0	31880	
6436	0	32322	
6437	0	33050	
6438	0	33792	
6439	0	34432	
6440	0	34876	
6441	0	35112	
6442	0	35048	
6443	0	34812	
6444	0	34456	
6445	0	34096	
6446	0	34090	
6447	0	34240	
6448	0	34268	
6449	0	34160	
6450	0	33900	
6451	0	33504	
6452	0	33028	
6453	0	32624	
6454	0	32248	
6455	0	32208	
6456	0	32672	
6457	0	33404	
6458	0	34160	
6459	0	34788	
6460	0	35224	
6461	0	35360	
6462	0	35280	
6463	0	35012	
6464	0	34636	
6465	0	34300	
6466	0	34336	
6467	0	34556	
6468	0	34664	
6469	0	34644	
6470	0	34492	
6471	0	34192	
6472	0	33792	
6473	0	33242	
6474	0	32712	
6475	0	32644	
6476	0	33176	
6477	0	33936	
6478	0	34668	
6479	0	35292	
6480	0	35744	
6481	0	35944	
6482	0	35900	
6483	0	35624	
6484	0	35128	
6485	0	34620	
6486	0	34436	
6487	0	34556	
6488	0	34648	
6489	0	34576	
6490	0	34328	
6491	0	33956	
6492	0	33456	
6493	0	33034	
6494	0	32612	
6495	0	32484	
6496	0	32880	
6497	0	33616	
6498	0	34360	
6499	0	34976	
6500	0	35360	
6501	0	35480	
6502	0	35348	
6503	0	35034	
6504	0	34624	
6505	0	34192	
6506	0	34152	
6507	0	34264	
6508	0	34236	
6509	0	34020	
6510	0	33772	
6511	0	33408	
6512	0	32948	
6513	0	32504	
6514	0	32116	
6515	0	31968	
6516	0	32346	
6517	0	33060	
6518	0	33760	
6519	0	34312	
6520	0	34668	
6521	0	34806	
6522	0	34696	
6523	0	34432	
6524	0	33984	
6525	0	33512	
6526	0	33420	
6527	0	33508	
6528	0	33520	
6529	0	33396	
6530	0	33040	
6531	0	32504	
6532	0	31928	
6533	0	31376	
6534	0	30872	
6535	0	30716	
6536	0	31132	
6537	0	31872	
6538	0	32608	
6539	0	33184	
6540	0	33560	
6541	0	33624	
6542	0	33400	
6543	0	33056	
6544	0	32608	
6545	0	32096	
6546	0	31964	
6547	0	32072	
6548	0	32120	
6549	0	32122	
6550	0	31936	
6551	0	31556	
6552	0	31052	
6553	0	30520	
6554	0	30048	
6555	0	29872	
6556	0	30204	
6557	0	30940	
6558	0	31756	
6559	0	32380	
6560	0	32788	
6561	0	32952	
6562	0	32844	
6563	0	32544	
6564	0	32136	
6565	0	31736	
6566	0	31696	
6567	0	31824	
6568	0	31884	
6569	0	31772	
6570	0	31464	
6571	0	31052	
6572	0	30592	
6573	0	30144	
6574	0	29716	
6575	0	29502	
6576	0	29792	
6577	0	30504	
6578	0	31260	
6579	0	31948	
6580	0	32436	
6581	0	32684	
6582	0	32626	
6583	0	32396	
6584	0	31988	
6585	0	31532	
6586	0	31440	
6587	0	31556	
6588	0	31618	
6589	0	31578	
6590	0	31322	
6591	0	30968	
6592	0	30448	
6593	0	29976	
6594	0	29588	
6595	0	29418	
6596	0	29712	
6597	0	30384	
6598	0	31212	
6599	0	31968	
6600	0	32508	
6601	0	32856	
6602	0	32812	
6603	0	32532	
6604	0	32080	
6605	0	31560	
6606	0	31428	
6607	0	31604	
6608	0	31696	
6609	0	31674	
6610	0	31492	
6611	0	31100	
6612	0	30592	
6613	0	30080	
6614	0	29740	
6615	0	29668	
6616	0	30080	
6617	0	30852	
6618	0	31700	
6619	0	32448	
6620	0	33020	
6621	0	33316	
6622	0	33268	
6623	0	33016	
6624	0	32580	
6625	0	32144	
6626	0	32072	
6627	0	32272	
6628	0	32324	
6629	0	32220	
6630	0	32004	
6631	0	31632	
6632	0	31156	
6633	0	30716	
6634	0	30340	
6635	0	30224	
6636	0	30632	
6637	0	31360	
6638	0	32136	
6639	0	32748	
6640	0	33160	
6641	0	33392	
6642	0	33344	
6643	0	33164	
6644	0	32774	
6645	0	32352	
6646	0	32228	
6647	0	32344	
6648	0	32396	
6649	0	32384	
6650	0	32172	
6651	0	31802	
6652	0	31332	
6653	0	30832	
6654	0	30408	
6655	0	30264	
6656	0	30572	
6657	0	31280	
6658	0	32096	
6659	0	32704	
6660	0	33120	
6661	0	33372	
6662	0	33320	
6663	0	33148	
6664	0	32816	
6665	0	32364	
6666	0	32228	
6667	0	32348	
6668	0	32446	
6669	0	32420	
6670	0	32216	
6671	0	31884	
6672	0	31480	
6673	0	31008	
6674	0	30572	
6675	0	30338	
6676	0	30664	
6677	0	31352	
6678	0	32180	
6679	0	32900	
6680	0	33408	
6681	0	33616	
6682	0	33520	
6683	0	33188	
6684	0	32716	
6685	0	32276	
6686	0	32112	
6687	0	32176	
6688	0	32340	
6689	0	32284	
6690	0	32124	
6691	0	31900	
6692	0	31536	
6693	0	31200	
6694	0	30816	
6695	0	30524	
6696	0	30728	
6697	0	31384	
6698	0	32160	
6699	0	32888	
6700	0	33408	
6701	0	33624	
6702	0	33560	
6703	0	33324	
6704	0	32936	
6705	0	32500	
6706	0	32320	
6707	0	32424	
6708	0	32528	
6709	0	32488	
6710	0	32244	
6711	0	31772	
6712	0	31240	
6713	0	30800	
6714	0	30472	
6715	0	30392	
6716	0	30776	
6717	0	31425	
6718	0	32196	
6719	0	32804	
6720	0	33252	
6721	0	33488	
6722	0	33476	
6723	0	33292	
6724	0	32892	
6725	0	32384	
6726	0	32240	
6727	0	32488	
6728	0	32716	
6729	0	32760	
6730	0	32586	
6731	0	32204	
6732	0	31704	
6733	0	31180	
6734	0	30660	
6735	0	30344	
6736	0	30632	
6737	0	31356	
6738	0	32208	
6739	0	32948	
6740	0	33468	
6741	0	33744	
6742	0	33700	
6743	0	33452	
6744	0	33036	
6745	0	32588	
6746	0	32548	
6747	0	32728	
6748	0	32840	
6749	0	32800	
6750	0	32576	
6751	0	32232	
6752	0	31812	
6753	0	31310	
6754	0	30884	
6755	0	30612	
6756	0	30778	
6757	0	31434	
6758	0	32256	
6759	0	32904	
6760	0	33324	
6761	0	33492	
6762	0	33408	
6763	0	33212	
6764	0	32872	
6765	0	32464	
6766	0	32328	
6767	0	32440	
6768	0	32664	
6769	0	32714	
6770	0	32520	
6771	0	32156	
6772	0	31608	
6773	0	31108	
6774	0	30752	
6775	0	30516	
6776	0	30828	
6777	0	31616	
6778	0	32432	
6779	0	33052	
6780	0	33476	
6781	0	33652	
6782	0	33600	
6783	0	33378	
6784	0	33000	
6785	0	32580	
6786	0	32516	
6787	0	32724	
6788	0	32888	
6789	0	32880	
6790	0	32700	
6791	0	32356	
6792	0	31864	
6793	0	31392	
6794	0	30916	
6795	0	30560	
6796	0	30824	
6797	0	31572	
6798	0	32384	
6799	0	33026	
6800	0	33464	
6801	0	33748	
6802	0	33796	
6803	0	33560	
6804	0	33132	
6805	0	32608	
6806	0	32426	
6807	0	32624	
6808	0	32818	
6809	0	32848	
6810	0	32724	
6811	0	32508	
6812	0	32036	
6813	0	31500	
6814	0	31032	
6815	0	30704	
6816	0	30928	
6817	0	31612	
6818	0	32508	
6819	0	33372	
6820	0	33952	
6821	0	34242	
6822	0	34200	
6823	0	34008	
6824	0	33672	
6825	0	33300	
6826	0	33132	
6827	0	33236	
6828	0	33392	
6829	0	33452	
6830	0	33372	
6831	0	33040	
6832	0	32572	
6833	0	32068	
6834	0	31620	
6835	0	31352	
6836	0	31528	
6837	0	32186	
6838	0	33040	
6839	0	33760	
6840	0	34296	
6841	0	34574	
6842	0	34568	
6843	0	34324	
6844	0	34064	
6845	0	33680	
6846	0	33636	
6847	0	33872	
6848	0	34120	
6849	0	34068	
6850	0	33876	
6851	0	33536	
6852	0	33036	
6853	0	32608	
6854	0	32220	
6855	0	31920	
6856	0	32088	
6857	0	32728	
6858	0	33540	
6859	0	34360	
6860	0	34928	
6861	0	35300	
6862	0	35352	
6863	0	35120	
6864	0	34728	
6865	0	34224	
6866	0	33984	
6867	0	34084	
6868	0	34208	
6869	0	34164	
6870	0	33992	
6871	0	33640	
6872	0	33092	
6873	0	32540	
6874	0	32064	
6875	0	31708	
6876	0	31840	
6877	0	32404	
6878	0	33112	
6879	0	33796	
6880	0	34344	
6881	0	34628	
6882	0	34672	
6883	0	34512	
6884	0	34128	
6885	0	33624	
6886	0	33288	
6887	0	33280	
6888	0	33314	
6889	0	33232	
6890	0	32992	
6891	0	32588	
6892	0	32056	
6893	0	31418	
6894	0	30888	
6895	0	30520	
6896	0	30680	
6897	0	31284	
6898	0	32124	
6899	0	32860	
6900	0	33412	
6901	0	33728	
6902	0	33736	
6903	0	33536	
6904	0	33164	
6905	0	32664	
6906	0	32432	
6907	0	32532	
6908	0	32712	
6909	0	32696	
6910	0	32552	
6911	0	32178	
6912	0	31700	
6913	0	31160	
6914	0	30680	
6915	0	30360	
6916	0	30536	
6917	0	31120	
6918	0	31940	
6919	0	32714	
6920	0	33252	
6921	0	33556	
6922	0	33592	
6923	0	33424	
6924	0	33064	
6925	0	32528	
6926	0	32204	
6927	0	32260	
6928	0	32376	
6929	0	32368	
6930	0	32284	
6931	0	32060	
6932	0	31564	
6933	0	31124	
6934	0	30768	
6935	0	30488	
6936	0	30616	
6937	0	31208	
6938	0	31992	
6939	0	32728	
6940	0	33252	
6941	0	33584	
6942	0	33680	
6943	0	33488	
6944	0	33141	
6945	0	32692	
6946	0	32432	
6947	0	32502	
6948	0	32656	
6949	0	32632	
6950	0	32540	
6951	0	32308	
6952	0	31840	
6953	0	31308	
6954	0	30924	
6955	0	30620	
6956	0	30754	
6957	0	31376	
6958	0	32216	
6959	0	33096	
6960	0	33916	
6961	0	34488	
6962	0	34668	
6963	0	34516	
6964	0	34114	
6965	0	33722	
6966	0	33732	
6967	0	34356	
6968	0	35064	
6969	0	35472	
6970	0	35584	
6971	0	35544	
6972	0	35376	
6973	0	35164	
6974	0	34948	
6975	0	34824	
6976	0	35168	
6977	0	35960	
6978	0	36816	
6979	0	37664	
6980	0	38516	
6981	0	39456	
6982	0	40386	
6983	0	41264	
6984	0	41824	
6985	0	41856	
6986	0	41868	
6987	0	42056	
6988	0	42040	
6989	0	41740	
6990	0	41176	
6991	0	40268	
6992	0	39154	
6993	0	38072	
6994	0	37172	
6995	0	36624	
6996	0	36408	
6997	0	36644	
6998	0	37024	
6999	0	37288	
7000	0	37492	
7001	0	37624	
7002	0	37544	
7003	0	37272	
7004	0	36752	
7005	0	36068	
7006	0	35620	
7007	0	35388	
7008	0	35196	
7009	0	34824	
7010	0	34308	
7011	0	33688	
7012	0	32924	
7013	0	32176	
7014	0	31490	
7015	0	30840	
7016	0	30542	
7017	0	30796	
7018	0	31444	
7019	0	32048	
7020	0	32538	
7021	0	32880	
7022	0	32908	
7023	0	32692	
7024	0	32236	
7025	0	31712	
7026	0	31412	
7027	0	31504	
7028	0	31716	
7029	0	31792	
7030	0	31688	
7031	0	31384	
7032	0	30912	
7033	0	30358	
7034	0	29904	
7035	0	29548	
7036	0	29464	
7037	0	29924	
7038	0	30680	
7039	0	31468	
7040	0	32016	
7041	0	32362	
7042	0	32412	
7043	0	32252	
7044	0	31932	
7045	0	31524	
7046	0	31200	
7047	0	31320	
7048	0	31514	
7049	0	31512	
7050	0	31324	
7051	0	30992	
7052	0	30592	
7053	0	30168	
7054	0	29748	
7055	0	29436	
7056	0	29522	
7057	0	30056	
7058	0	30860	
7059	0	31600	
7060	0	32232	
7061	0	32640	
7062	0	32738	
7063	0	32532	
7064	0	32144	
7065	0	31728	
7066	0	31424	
7067	0	31424	
7068	0	31592	
7069	0	31560	
7070	0	31444	
7071	0	31352	
7072	0	31080	
7073	0	30632	
7074	0	30152	
7075	0	29812	
7076	0	29864	
7077	0	30484	
7078	0	31266	
7079	0	31996	
7080	0	32600	
7081	0	32996	
7082	0	33104	
7083	0	32864	
7084	0	32408	
7085	0	31920	
7086	0	31704	
7087	0	31840	
7088	0	32056	
7089	0	32108	
7090	0	32104	
7091	0	31908	
7092	0	31484	
7093	0	30916	
7094	0	30404	
7095	0	30092	
7096	0	30192	
7097	0	30768	
7098	0	31588	
7099	0	32236	
7100	0	32712	
7101	0	33024	
7102	0	33128	
7103	0	33048	
7104	0	32820	
7105	0	32380	
7106	0	32084	
7107	0	32176	
7108	0	32352	
7109	0	32376	
7110	0	32280	
7111	0	32096	
7112	0	31684	
7113	0	31232	
7114	0	30712	
7115	0	30328	
7116	0	30406	
7117	0	30985	
7118	0	31768	
7119	0	32520	
7120	0	33100	
7121	0	33476	
7122	0	33640	
7123	0	33572	
7124	0	33296	
7125	0	32928	
7126	0	32600	
7127	0	32748	
7128	0	32928	
7129	0	32944	
7130	0	32836	
7131	0	32532	
7132	0	32072	
7133	0	31616	
7134	0	31204	
7135	0	30912	
7136	0	30968	
7137	0	31480	
7138	0	32320	
7139	0	33112	
7140	0	33656	
7141	0	34004	
7142	0	34104	
7143	0	33978	
7144	0	33680	
7145	0	33276	
7146	0	32920	
7147	0	32932	
7148	0	33044	
7149	0	33092	
7150	0	33000	
7151	0	32775	
7152	0	32360	
7153	0	31924	
7154	0	31496	
7155	0	31130	
7156	0	31108	
7157	0	31620	
7158	0	32360	
7159	0	33132	
7160	0	33786	
7161	0	34236	
7162	0	34336	
7163	0	34152	
7164	0	33852	
7165	0	33456	
7166	0	33164	
7167	0	33252	
7168	0	33440	
7169	0	33592	
7170	0	33584	
7171	0	33340	
7172	0	32912	
7173	0	32456	
7174	0	32020	
7175	0	31612	
7176	0	31532	
7177	0	31940	
7178	0	32712	
7179	0	33552	
7180	0	34224	
7181	0	34768	
7182	0	35024	
7183	0	34920	
7184	0	34624	
7185	0	34184	
7186	0	33857	
7187	0	33888	
7188	0	34076	
7189	0	34146	
7190	0	34104	
7191	0	33901	
7192	0	33500	
7193	0	32948	
7194	0	32404	
7195	0	31964	
7196	0	31924	
7197	0	32436	
7198	0	33362	
7199	0	34268	
7200	0	34920	
7201	0	35290	
7202	0	35356	
7203	0	35216	
7204	0	34968	
7205	0	34512	
7206	0	34160	
7207	0	34200	
7208	0	34424	
7209	0	34508	
7210	0	34434	
7211	0	34248	
7212	0	33868	
7213	0	33448	
7214	0	33032	
7215	0	32608	
7216	0	32488	
7217	0	32900	
7218	0	33706	
7219	0	34560	
7220	0	35272	
7221	0	35728	
7222	0	35824	
7223	0	35672	
7224	0	35364	
7225	0	34880	
7226	0	34450	
7227	0	34400	
7228	0	34612	
7229	0	34732	
7230	0	34608	
7231	0	34444	
7232	0	34144	
7233	0	33704	
7234	0	33188	
7235	0	32756	
7236	0	32668	
7237	0	33216	
7238	0	34080	
7239	0	34912	
7240	0	35484	
7241	0	35868	
7242	0	35972	
7243	0	35872	
7244	0	35576	
7245	0	35096	
7246	0	34712	
7247	0	34676	
7248	0	34804	
7249	0	34816	
7250	0	34688	
7251	0	34400	
7252	0	33944	
7253	0	33480	
7254	0	33056	
7255	0	32676	
7256	0	32668	
7257	0	33108	
7258	0	33756	
7259	0	34416	
7260	0	34992	
7261	0	35424	
7262	0	35600	
7263	0	35440	
7264	0	35080	
7265	0	34512	
7266	0	34056	
7267	0	34044	
7268	0	34220	
7269	0	34284	
7270	0	34220	
7271	0	33944	
7272	0	33440	
7273	0	32784	
7274	0	32136	
7275	0	31532	
7276	0	31464	
7277	0	31920	
7278	0	32576	
7279	0	33312	
7280	0	33904	
7281	0	34248	
7282	0	34308	
7283	0	34184	
7284	0	33908	
7285	0	33452	
7286	0	32976	
7287	0	32860	
7288	0	33008	
7289	0	33008	
7290	0	32864	
7291	0	32552	
7292	0	32000	
7293	0	31465	
7294	0	30964	
7295	0	30488	
7296	0	30340	
7297	0	30788	
7298	0	31504	
7299	0	32184	
7300	0	32752	
7301	0	33120	
7302	0	33224	
7303	0	33120	
7304	0	32772	
7305	0	32252	
7306	0	31866	
7307	0	31876	
7308	0	32040	
7309	0	32020	
7310	0	31880	
7311	0	31608	
7312	0	31180	
7313	0	30680	
7314	0	30112	
7315	0	29660	
7316	0	29592	
7317	0	30056	
7318	0	30840	
7319	0	31540	
7320	0	32096	
7321	0	32504	
7322	0	32644	
7323	0	32584	
7324	0	32344	
7325	0	31916	
7326	0	31466	
7327	0	31448	
7328	0	31600	
7329	0	31690	
7330	0	31696	
7331	0	31456	
7332	0	31024	
7333	0	30544	
7334	0	30048	
7335	0	29594	
7336	0	29484	
7337	0	29916	
7338	0	30628	
7339	0	31376	
7340	0	32022	
7341	0	32476	
7342	0	32648	
7343	0	32568	
7344	0	32312	
7345	0	31908	
7346	0	31546	
7347	0	31596	
7348	0	31824	
7349	0	31908	
7350	0	31768	
7351	0	31472	
7352	0	31012	
7353	0	30532	
7354	0	30076	
7355	0	29620	
7356	0	29484	
7357	0	30020	
7358	0	30924	
7359	0	31688	
7360	0	32248	
7361	0	32628	
7362	0	32852	
7363	0	32848	
7364	0	32648	
7365	0	32320	
7366	0	31968	
7367	0	31960	
7368	0	32102	
7369	0	32168	
7370	0	31984	
7371	0	31668	
7372	0	31234	
7373	0	30780	
7374	0	30404	
7375	0	30048	
7376	0	29952	
7377	0	30448	
7378	0	31232	
7379	0	31936	
7380	0	32460	
7381	0	32800	
7382	0	32936	
7383	0	32992	
7384	0	32852	
7385	0	32428	
7386	0	31952	
7387	0	31908	
7388	0	32112	
7389	0	32216	
7390	0	32164	
7391	0	31978	
7392	0	31548	
7393	0	31074	
7394	0	30640	
7395	0	30224	
7396	0	30052	
7397	0	30512	
7398	0	31272	
7399	0	32040	
7400	0	32672	
7401	0	33104	
7402	0	33316	
7403	0	33292	
7404	0	32954	
7405	0	32476	
7406	0	31996	
7407	0	31808	
7408	0	32000	
7409	0	32300	
7410	0	32440	
7411	0	32344	
7412	0	32024	
7413	0	31544	
7414	0	31040	
7415	0	30592	
7416	0	30504	
7417	0	30920	
7418	0	31708	
7419	0	32556	
7420	0	33220	
7421	0	33672	
7422	0	33848	
7423	0	33708	
7424	0	33292	
7425	0	32848	
7426	0	32456	
7427	0	32378	
7428	0	32504	
7429	0	32612	
7430	0	32576	
7431	0	32376	
7432	0	32016	
7433	0	31584	
7434	0	31096	
7435	0	30664	
7436	0	30488	
7437	0	30904	
7438	0	31744	
7439	0	32548	
7440	0	33144	
7441	0	33540	
7442	0	33656	
7443	0	33532	
7444	0	33228	
7445	0	32800	
7446	0	32354	
7447	0	32304	
7448	0	32484	
7449	0	32588	
7450	0	32448	
7451	0	32112	
7452	0	31748	
7453	0	31360	
7454	0	30984	
7455	0	30480	
7456	0	30342	
7457	0	30768	
7458	0	31524	
7459	0	32360	
7460	0	33098	
7461	0	33608	
7462	0	33880	
7463	0	33824	
7464	0	33508	
7465	0	33004	
7466	0	32516	
7467	0	32516	
7468	0	32736	
7469	0	32840	
7470	0	32756	
7471	0	32468	
7472	0	32032	
7473	0	31464	
7474	0	30990	
7475	0	30640	
7476	0	30532	
7477	0	30908	
7478	0	31600	
7479	0	32288	
7480	0	32864	
7481	0	33372	
7482	0	33612	
7483	0	33528	
7484	0	33264	
7485	0	32968	
7486	0	32632	
7487	0	32544	
7488	0	32748	
7489	0	32892	
7490	0	32768	
7491	0	32490	
7492	0	32140	
7493	0	31676	
7494	0	31180	
7495	0	30632	
7496	0	30364	
7497	0	30682	
7498	0	31412	
7499	0	32192	
7500	0	32864	
7501	0	33284	
7502	0	33440	
7503	0	33276	
7504	0	32972	
7505	0	32596	
7506	0	32284	
7507	0	32384	
7508	0	32592	
7509	0	32724	
7510	0	32696	
7511	0	32544	
7512	0	32236	
7513	0	31804	
7514	0	31232	
7515	0	30800	
7516	0	30690	
7517	0	31048	
7518	0	31812	
7519	0	32680	
7520	0	33400	
7521	0	33848	
7522	0	34032	
7523	0	33832	
7524	0	33518	
7525	0	33148	
7526	0	32728	
7527	0	32688	
7528	0	32900	
7529	0	32980	
7530	0	32872	
7531	0	32632	
7532	0	32308	
7533	0	31880	
7534	0	31404	
7535	0	30932	
7536	0	30716	
7537	0	31016	
7538	0	31804	
7539	0	32704	
7540	0	33408	
7541	0	33808	
7542	0	33952	
7543	0	33860	
7544	0	33628	
7545	0	33232	
7546	0	32796	
7547	0	32688	
7548	0	32928	
7549	0	33016	
7550	0	32932	
7551	0	32628	
7552	0	32252	
7553	0	31740	
7554	0	31272	
7555	0	30816	
7556	0	30600	
7557	0	30956	
7558	0	31680	
7559	0	32474	
7560	0	33080	
7561	0	33572	
7562	0	33848	
7563	0	33808	
7564	0	33632	
7565	0	33324	
7566	0	32936	
7567	0	32812	
7568	0	32904	
7569	0	32928	
7570	0	32908	
7571	0	32800	
7572	0	32504	
7573	0	32064	
7574	0	31652	
7575	0	31268	
7576	0	31012	
7577	0	31222	
7578	0	31880	
7579	0	32632	
7580	0	33396	
7581	0	34096	
7582	0	34616	
7583	0	34712	
7584	0	34480	
7585	0	34112	
7586	0	33672	
7587	0	33704	
7588	0	34048	
7589	0	34232	
7590	0	34136	
7591	0	33944	
7592	0	33712	
7593	0	33392	
7594	0	32968	
7595	0	32480	
7596	0	32332	
7597	0	32704	
7598	0	33368	
7599	0	34048	
7600	0	34660	
7601	0	35184	
7602	0	35500	
7603	0	35360	
7604	0	34968	
7605	0	34528	
7606	0	34064	
7607	0	33988	
7608	0	34176	
7609	0	34352	
7610	0	34292	
7611	0	34034	
7612	0	33684	
7613	0	33324	
7614	0	32976	
7615	0	32624	
7616	0	32456	
7617	0	32752	
7618	0	33268	
7619	0	33852	
7620	0	34504	
7621	0	35016	
7622	0	35392	
7623	0	35312	
7624	0	34996	
7625	0	34544	
7626	0	33944	
7627	0	33732	
7628	0	33776	
7629	0	33744	
7630	0	33612	
7631	0	33352	
7632	0	32924	
7633	0	32416	
7634	0	31916	
7635	0	31308	
7636	0	30876	
7637	0	31000	
7638	0	31568	
7639	0	32364	
7640	0	33136	
7641	0	33600	
7642	0	33724	
7643	0	33516	
7644	0	33280	
7645	0	33000	
7646	0	32556	
7647	0	32340	
7648	0	32420	
7649	0	32468	
7650	0	32420	
7651	0	32304	
7652	0	32072	
7653	0	31656	
7654	0	31152	
7655	0	30740	
7656	0	30508	
7657	0	30848	
7658	0	31616	
7659	0	32488	
7660	0	33172	
7661	0	33532	
7662	0	33628	
7663	0	33480	
7664	0	33112	
7665	0	32624	
7666	0	32192	
7667	0	32184	
7668	0	32456	
7669	0	32736	
7670	0	32952	
7671	0	32856	
7672	0	32408	
7673	0	31872	
7674	0	31324	
7675	0	30804	
7676	0	30482	
7677	0	30716	
7678	0	31444	
7679	0	32336	
7680	0	33132	
7681	0	33680	
7682	0	33972	
7683	0	33924	
7684	0	33696	
7685	0	33288	
7686	0	32888	
7687	0	32908	
7688	0	33192	
7689	0	33232	
7690	0	33000	
7691	0	32608	
7692	0	32192	
7693	0	31704	
7694	0	31160	
7695	0	30636	
7696	0	30380	
7697	0	30712	
7698	0	31460	
7699	0	32300	
7700	0	33032	
7701	0	33576	
7702	0	33788	
7703	0	33816	
7704	0	33804	
7705	0	33568	
7706	0	33232	
7707	0	33168	
7708	0	33460	
7709	0	33856	
7710	0	34096	
7711	0	34052	
7712	0	33848	
7713	0	33592	
7714	0	33416	
7715	0	33272	
7716	0	33312	
7717	0	33960	
7718	0	35040	
7719	0	36048	
7720	0	36812	
7721	0	37408	
7722	0	37752	
7723	0	37912	
7724	0	37900	
7725	0	37788	
7726	0	37712	
7727	0	38028	
7728	0	38792	
7729	0	39712	
7730	0	40596	
7731	0	41316	
7732	0	41816	
7733	0	41844	
7734	0	41464	
7735	0	40868	
7736	0	40328	
7737	0	40160	
7738	0	40228	
7739	0	40192	
7740	0	40148	
7741	0	40040	
7742	0	39956	
7743	0	39776	
7744	0	39276	
7745	0	38520	
7746	0	37536	
7747	0	36776	
7748	0	36520	
7749	0	36460	
7750	0	36408	
7751	0	36145	
7752	0	35644	
7753	0	35012	
7754	0	34296	
7755	0	33532	
7756	0	32874	
7757	0	32720	
7758	0	33044	
7759	0	33592	
7760	0	34092	
7761	0	34352	
7762	0	34392	
7763	0	34220	
7764	0	33880	
7765	0	33316	
7766	0	32636	
7767	0	32172	
7768	0	32052	
7769	0	32088	
7770	0	32032	
7771	0	31820	
7772	0	31456	
7773	0	30864	
7774	0	30240	
7775	0	29684	
7776	0	29332	
7777	0	29568	
7778	0	30268	
7779	0	31076	
7780	0	31820	
7781	0	32312	
7782	0	32552	
7783	0	32480	
7784	0	32200	
7785	0	31844	
7786	0	31404	
7787	0	31176	
7788	0	31239	
7789	0	31320	
7790	0	31328	
7791	0	31132	
7792	0	30720	
7793	0	30248	
7794	0	29768	
7795	0	29336	
7796	0	29024	
7797	0	29260	
7798	0	30008	
7799	0	30824	
7800	0	31536	
7801	0	32032	
7802	0	32308	
7803	0	32312	
7804	0	32088	
7805	0	31624	
7806	0	31088	
7807	0	30896	
7808	0	31096	
7809	0	31476	
7810	0	31688	
7811	0	31636	
7812	0	31338	
7813	0	30800	
7814	0	30256	
7815	0	29788	
7816	0	29504	
7817	0	29720	
7818	0	30384	
7819	0	31212	
7820	0	31938	
7821	0	32468	
7822	0	32812	
7823	0	32904	
7824	0	32752	
7825	0	32305	
7826	0	31760	
7827	0	31568	
7828	0	31712	
7829	0	31876	
7830	0	31860	
7831	0	31728	
7832	0	31384	
7833	0	30868	
7834	0	30348	
7835	0	29888	
7836	0	29612	
7837	0	29904	
7838	0	30732	
7839	0	31656	
7840	0	32428	
7841	0	32888	
7842	0	33076	
7843	0	33076	
7844	0	32760	
7845	0	32288	
7846	0	31724	
7847	0	31470	
7848	0	31586	
7849	0	31832	
7850	0	31964	
7851	0	31928	
7852	0	31728	
7853	0	31304	
7854	0	30852	
7855	0	30384	
7856	0	29984	
7857	0	30244	
7858	0	31010	
7859	0	31920	
7860	0	32720	
7861	0	33256	
7862	0	33572	
7863	0	33666	
7864	0	33586	
7865	0	33232	
7866	0	32640	
7867	0	32188	
7868	0	32128	
7869	0	32228	
7870	0	32216	
7871	0	32060	
7872	0	31756	
7873	0	31376	
7874	0	30984	
7875	0	30594	
7876	0	30272	
7877	0	30392	
7878	0	31000	
7879	0	31784	
7880	0	32584	
7881	0	33200	
7882	0	33608	
7883	0	33612	
7884	0	33352	
7885	0	32864	
7886	0	32320	
7887	0	32224	
7888	0	32560	
7889	0	32896	
7890	0	32916	
7891	0	32796	
7892	0	32536	
7893	0	32120	
7894	0	31612	
7895	0	31172	
7896	0	30856	
7897	0	31016	
7898	0	31624	
7899	0	32338	
7900	0	33108	
7901	0	33752	
7902	0	34136	
7903	0	34168	
7904	0	33976	
7905	0	33600	
7906	0	33088	
7907	0	32856	
7908	0	32992	
7909	0	33220	
7910	0	33288	
7911	0	33210	
7912	0	32852	
7913	0	32324	
7914	0	31724	
7915	0	31124	
7916	0	30808	
7917	0	31000	
7918	0	31684	
7919	0	32540	
7920	0	33320	
7921	0	33944	
7922	0	34480	
7923	0	34744	
7924	0	34628	
7925	0	34172	
7926	0	33594	
7927	0	33304	
7928	0	33428	
7929	0	33656	
7930	0	33764	
7931	0	33664	
7932	0	33432	
7933	0	32984	
7934	0	32512	
7935	0	31888	
7936	0	31360	
7937	0	31432	
7938	0	31988	
7939	0	32836	
7940	0	33688	
7941	0	34240	
7942	0	34652	
7943	0	34893	
7944	0	34900	
7945	0	34592	
7946	0	34116	
7947	0	33744	
7948	0	33760	
7949	0	33992	
7950	0	34060	
7951	0	34064	
7952	0	33914	
7953	0	33416	
7954	0	32848	
7955	0	32400	
7956	0	32068	
7957	0	32194	
7958	0	32888	
7959	0	33728	
7960	0	34512	
7961	0	35128	
7962	0	35480	
7963	0	35520	
7964	0	35256	
7965	0	34808	
7966	0	34328	
7967	0	34032	
7968	0	34196	
7969	0	34520	
7970	0	34612	
7971	0	34432	
7972	0	34052	
7973	0	33500	
7974	0	33028	
7975	0	32672	
7976	0	32356	
7977	0	32448	
7978	0	33052	
7979	0	33930	
7980	0	34732	
7981	0	35324	
7982	0	35780	
7983	0	35944	
7984	0	35780	
7985	0	35400	
7986	0	34944	
7987	0	34744	
7988	0	34828	
7989	0	34948	
7990	0	34968	
7991	0	34872	
7992	0	34580	
7993	0	33992	
7994	0	33304	
7995	0	32664	
7996	0	32232	
7997	0	32396	
7998	0	33128	
7999	0	33924	
8000	0	34660	
8001	0	35256	
8002	0	35628	
8003	0	35692	
8004	0	35496	
8005	0	35056	
8006	0	34504	
8007	0	34180	
8008	0	34248	
8009	0	34468	
8010	0	34500	
8011	0	34320	
8012	0	33920	
8013	0	33360	
8014	0	32824	
8015	0	32340	
8016	0	31856	
8017	0	31872	
8018	0	32468	
8019	0	33300	
8020	0	34064	
8021	0	34520	
8022	0	34796	
8023	0	34768	
8024	0	34480	
8025	0	34056	
8026	0	33620	
8027	0	33312	
8028	0	33248	
8029	0	33280	
8030	0	33172	
8031	0	33000	
8032	0	32664	
8033	0	32122	
8034	0	31552	
8035	0	30992	
8036	0	30476	
8037	0	30312	
8038	0	30802	
8039	0	31648	
8040	0	32416	
8041	0	33012	
8042	0	33384	
8043	0	33440	
8044	0	33260	
8045	0	32848	
8046	0	32148	
8047	0	31704	
8048	0	31840	
8049	0	32137	
8050	0	32252	
8051	0	32080	
8052	0	31672	
8053	0	31168	
8054	0	30658	
8055	0	29978	
8056	0	29436	
8057	0	29344	
8058	0	29864	
8059	0	30712	
8060	0	31616	
8061	0	32328	
8062	0	32800	
8063	0	32928	
8064	0	32732	
8065	0	32276	
8066	0	31648	
8067	0	31280	
8068	0	31360	
8069	0	31544	
8070	0	31572	
8071	0	31516	
8072	0	31328	
8073	0	30868	
8074	0	30284	
8075	0	29732	
8076	0	29264	
8077	0	29260	
8078	0	29898	
8079	0	30868	
8080	0	31772	
8081	0	32392	
8082	0	32820	
8083	0	32948	
8084	0	32752	
8085	0	32452	
8086	0	31948	
8087	0	31560	
8088	0	31604	
8089	0	31812	
8090	0	31920	
8091	0	31760	
8092	0	31408	
8093	0	30832	
8094	0	30260	
8095	0	29740	
8096	0	29264	
8097	0	29304	
8098	0	29928	
8099	0	30816	
8100	0	31716	
8101	0	32400	
8102	0	32840	
8103	0	32868	
8104	0	32668	
8105	0	32252	
8106	0	31784	
8107	0	31592	
8108	0	31784	
8109	0	31896	
8110	0	31828	
8111	0	31692	
8112	0	31456	
8113	0	31008	
8114	0	30496	
8115	0	29984	
8116	0	29546	
8117	0	29528	
8118	0	30081	
8119	0	30940	
8120	0	31858	
8121	0	32584	
8122	0	33024	
8123	0	33076	
8124	0	32896	
8125	0	32520	
8126	0	31960	
8127	0	31572	
8128	0	31720	
8129	0	32064	
8130	0	32244	
8131	0	32204	
8132	0	32000	
8133	0	31516	
8134	0	31048	
8135	0	30664	
8136	0	30256	
8137	0	30128	
8138	0	30548	
8139	0	31240	
8140	0	31892	
8141	0	32360	
8142	0	32774	
8143	0	33024	
8144	0	32996	
8145	0	32764	
8146	0	32336	
8147	0	31944	
8148	0	31928	
8149	0	32160	
8150	0	32172	
8151	0	31972	
8152	0	31644	
8153	0	31188	
8154	0	30706	
8155	0	30232	
8156	0	29972	
8157	0	30032	
8158	0	30464	
8159	0	31134	
8160	0	32004	
8161	0	32820	
8162	0	33476	
8163	0	33764	
8164	0	33666	
8165	0	33248	
8166	0	32684	
8167	0	32200	
8168	0	32156	
8169	0	32380	
8170	0	32488	
8171	0	32480	
8172	0	32300	
8173	0	31864	
8174	0	31228	
8175	0	30612	
8176	0	30064	
8177	0	29962	
8178	0	30424	
8179	0	31256	
8180	0	32132	
8181	0	32900	
8182	0	33372	
8183	0	33496	
8184	0	33348	
8185	0	33024	
8186	0	32528	
8187	0	32096	
8188	0	31980	
8189	0	32056	
8190	0	32096	
8191	0	32032	
8192	0	31784	
8193	0	31248	
8194	0	30712	
8195	0	30240	
8196	0	29736	
8197	0	29668	
8198	0	30242	
8199	0	31200	
8200	0	32120	
8201	0	32836	
8202	0	33272	
8203	0	33440	
8204	0	33412	
8205	0	33184	
8206	0	32668	
8207	0	32200	
8208	0	32232	
8209	0	32464	
8210	0	32576	
8211	0	32444	
8212	0	32096	
8213	0	31664	
8214	0	31160	
8215	0	30692	
8216	0	30318	
8217	0	30280	
8218	0	30772	
8219	0	31500	
8220	0	32344	
8221	0	33160	
8222	0	33784	
8223	0	34056	
8224	0	33876	
8225	0	33376	
8226	0	32684	
8227	0	32072	
8228	0	32058	
8229	0	32352	
8230	0	32352	
8231	0	32212	
8232	0	31932	
8233	0	31488	
8234	0	30956	
8235	0	30460	
8236	0	30012	
8237	0	29884	
8238	0	30440	
8239	0	31360	
8240	0	32320	
8241	0	33016	
8242	0	33432	
8243	0	33664	
8244	0	33586	
8245	0	33376	
8246	0	33032	
8247	0	32652	
8248	0	32564	
8249	0	32744	
8250	0	32848	
8251	0	32836	
8252	0	32548	
8253	0	31952	
8254	0	31296	
8255	0	30682	
8256	0	30144	
8257	0	29976	
8258	0	30460	
8259	0	31353	
8260	0	32288	
8261	0	33040	
8262	0	33576	
8263	0	33856	
8264	0	33896	
8265	0	33616	
8266	0	33146	
8267	0	32628	
8268	0	32560	
8269	0	32716	
8270	0	32812	
8271	0	32748	
8272	0	32546	
8273	0	32116	
8274	0	31556	
8275	0	30948	
8276	0	30488	
8277	0	30338	
8278	0	30788	
8279	0	31552	
8280	0	32464	
8281	0	33240	
8282	0	33776	
8283	0	34052	
8284	0	33972	
8285	0	33652	
8286	0	33088	
8287	0	32570	
8288	0	32570	
8289	0	32808	
8290	0	32898	
8291	0	32792	
8292	0	32440	
8293	0	31960	
8294	0	31352	
8295	0	30776	
8296	0	30404	
8297	0	30244	
8298	0	30632	
8299	0	31468	
8300	0	32392	
8301	0	33184	
8302	0	33644	
8303	0	33828	
8304	0	33776	
8305	0	33532	
8306	0	33096	
8307	0	32560	
8308	0	32444	
8309	0	32616	
8310	0	32784	
8311	0	32804	
8312	0	32776	
8313	0	32484	
8314	0	31968	
8315	0	31452	
8316	0	30916	
8317	0	30752	
8318	0	31184	
8319	0	32024	
8320	0	32980	
8321	0	33816	
8322	0	34348	
8323	0	34504	
8324	0	34372	
8325	0	33988	
8326	0	33456	
8327	0	33008	
8328	0	33076	
8329	0	33248	
8330	0	33432	
8331	0	33532	
8332	0	33404	
8333	0	32984	
8334	0	32258	
8335	0	31640	
8336	0	31306	
8337	0	31424	
8338	0	31972	
8339	0	32764	
8340	0	33604	
8341	0	34264	
8342	0	34608	
8343	0	34800	
8344	0	34788	
8345	0	34684	
8346	0	34400	
8347	0	33984	
8348	0	33984	
8349	0	34321	
8350	0	34504	
8351	0	34424	
8352	0	34136	
8353	0	33708	
8354	0	33120	
8355	0	32488	
8356	0	32000	
8357	0	31852	
8358	0	32328	
8359	0	33128	
8360	0	33952	
8361	0	34612	
8362	0	35040	
8363	0	35248	
8364	0	35196	
8365	0	34944	
8366	0	34476	
8367	0	33820	
8368	0	33552	
8369	0	33616	
8370	0	33732	
8371	0	33546	
8372	0	33244	
8373	0	32800	
8374	0	32266	
8375	0	31696	
8376	0	31256	
8377	0	31152	
8378	0	31592	
8379	0	32236	
8380	0	32976	
8381	0	33656	
8382	0	34152	
8383	0	34528	
8384	0	34556	
8385	0	34216	
8386	0	33684	
8387	0	33128	
8388	0	32912	
8389	0	32928	
8390	0	32984	
8391	0	32868	
8392	0	32580	
8393	0	32088	
8394	0	31432	
8395	0	30808	
8396	0	30168	
8397	0	29844	
8398	0	30320	
8399	0	31380	
8400	0	32556	
8401	0	33544	
8402	0	34100	
8403	0	34224	
8404	0	34032	
8405	0	33672	
8406	0	33112	
8407	0	32596	
8408	0	32540	
8409	0	32744	
8410	0	32898	
8411	0	32780	
8412	0	32484	
8413	0	32068	
8414	0	31584	
8415	0	31124	
8416	0	30720	
8417	0	30674	
8418	0	31116	
8419	0	31840	
8420	0	32732	
8421	0	33488	
8422	0	33972	
8423	0	34084	
8424	0	33840	
8425	0	33474	
8426	0	33032	
8427	0	32500	
8428	0	32380	
8429	0	32602	
8430	0	32672	
8431	0	32612	
8432	0	32412	
8433	0	32168	
8434	0	31826	
8435	0	31336	
8436	0	30752	
8437	0	30260	
8438	0	30444	
8439	0	31164	
8440	0	32148	
8441	0	33064	
8442	0	33688	
8443	0	34024	
8444	0	34016	
8445	0	33788	
8446	0	33344	
8447	0	32760	
8448	0	32616	
8449	0	32784	
8450	0	32925	
8451	0	32912	
8452	0	32760	
8453	0	32508	
8454	0	32128	
8455	0	31632	
8456	0	31160	
8457	0	30948	
8458	0	31336	
8459	0	32312	
8460	0	33540	
8461	0	34648	
8462	0	35528	
8463	0	36160	
8464	0	36416	
8465	0	36440	
8466	0	36240	
8467	0	36024	
8468	0	36196	
8469	0	36784	
8470	0	37216	
8471	0	37400	
8472	0	37388	
8473	0	37368	
8474	0	37412	
8475	0	37504	
8476	0	37696	
8477	0	38152	
8478	0	39088	
8479	0	40408	
8480	0	41536	
8481	0	42384	
8482	0	42912	
8483	0	43052	
8484	0	42580	
8485	0	41568	
8486	0	40392	
8487	0	39304	
8488	0	38624	
8489	0	38284	
8490	0	37952	
8491	0	37504	
8492	0	36980	
8493	0	36364	
8494	0	35616	
8495	0	34924	
8496	0	34264	
8497	0	33792	
8498	0	33916	
8499	0	34476	
8500	0	35172	
8501	0	35824	
8502	0	36152	
8503	0	36072	
8504	0	35792	
8505	0	35368	
8506	0	34756	
8507	0	34056	
8508	0	33652	
8509	0	33461	
8510	0	33272	
8511	0	33028	
8512	0	32676	
8513	0	32192	
8514	0	31468	
8515	0	30808	
8516	0	30256	
8517	0	29944	
8518	0	30192	
8519	0	30972	
8520	0	31872	
8521	0	32680	
8522	0	33216	
8523	0	33524	
8524	0	33568	
8525	0	33380	
8526	0	32896	
8527	0	32290	
8528	0	32116	
8529	0	32328	
8530	0	32544	
8531	0	32496	
8532	0	32266	
8533	0	31956	
8534	0	31476	
8535	0	30944	
8536	0	30472	
8537	0	30200	
8538	0	30424	
8539	0	31160	
8540	0	31956	
8541	0	32668	
8542	0	33220	
8543	0	33524	
8544	0	33416	
8545	0	33124	
8546	0	32722	
8547	0	32208	
8548	0	31964	
8549	0	32120	
8550	0	32336	
8551	0	32452	
8552	0	32420	
8553	0	32184	
8554	0	31664	
8555	0	31044	
8556	0	30344	
8557	0	29828	
8558	0	30030	
8559	0	30816	
8560	0	31852	
8561	0	32800	
8562	0	33448	
8563	0	33904	
8564	0	33912	
8565	0	33628	
8566	0	33256	
8567	0	32864	
8568	0	32720	
8569	0	32876	
8570	0	33004	
8571	0	32872	
8572	0	32536	
8573	0	32080	
8574	0	31496	
8575	0	30980	
8576	0	30528	
8577	0	30208	
8578	0	30428	
8579	0	31194	
8580	0	32096	
8581	0	32988	
8582	0	33684	
8583	0	34048	
8584	0	33972	
8585	0	33792	
8586	0	33368	
8587	0	32820	
8588	0	32632	
8589	0	32868	
8590	0	33100	
8591	0	33156	
8592	0	33008	
8593	0	32688	
