# OpenSignals Text File Format. Version 1
# {"00:07:80:0F:31:47": {"position": 0, "device": "biosignalsplux", "device name": "00:07:80:0F:31:47", "device connection": "BTH00:07:80:0F:31:47", "sampling rate": 1000, "resolution": [16], "firmware version": 775, "comments": "", "keywords": "", "mode": 0, "sync interval": 2, "date": "2023-2-6", "time": "10:28:12.250", "channels": [1], "sensor": ["ECG"], "label": ["CH1"], "column": ["nSeq", "DI", "CH1"], "special": [{"SpO2": [80, 40, 5, 4, 3, 3]}, {"SpO2": [80, 40, 5, 4, 3, 3]}, {"SpO2": [80, 40, 5, 4, 3, 3]}, {"SpO2": [80, 40, 5, 4, 3, 3]}, {"SpO2": [80, 40, 5, 4, 3, 3]}, {"SpO2": [80, 40, 5, 4, 3, 3]}, {"SpO2": [80, 40, 5, 4, 3, 3]}, {"SpO2": [80, 40, 5, 4, 3, 3]}], "digital IO": [0, 1], "sleeve color": [""]}}
# EndOfHeader
0	0	32612	
1	0	32604	
2	0	32640	
3	0	32664	
4	0	32712	
5	0	32656	
6	0	32572	
7	0	32532	
8	0	32564	
9	0	32672	
10	0	32824	
11	0	32968	
12	0	33016	
13	0	33040	
14	0	33068	
15	0	33024	
16	0	32872	
17	0	32690	
18	0	32480	
19	0	32332	
20	0	32268	
21	0	32280	
22	0	32312	
23	0	32364	
24	0	32420	
25	0	32416	
26	0	32384	
27	0	32398	
28	0	32476	
29	0	32576	
30	0	32720	
31	0	32896	
32	0	33064	
33	0	33204	
34	0	33336	
35	0	33340	
36	0	33232	
37	0	33016	
38	0	32832	
39	0	32704	
40	0	32636	
41	0	32632	
42	0	32660	
43	0	32732	
44	0	32808	
45	0	32820	
46	0	32804	
47	0	32816	
48	0	32896	
49	0	33008	
50	0	33132	
51	0	33288	
52	0	33448	
53	0	33608	
54	0	33700	
55	0	33676	
56	0	33524	
57	0	33320	
58	0	33160	
59	0	33036	
60	0	32944	
61	0	32908	
62	0	32896	
63	0	32912	
64	0	32948	
65	0	32928	
66	0	32879	
67	0	32828	
68	0	32848	
69	0	32920	
70	0	32972	
71	0	33010	
72	0	33048	
73	0	33128	
74	0	33156	
75	0	33136	
76	0	33028	
77	0	32872	
78	0	32704	
79	0	32616	
80	0	32540	
81	0	32508	
82	0	32540	
83	0	32608	
84	0	32704	
85	0	32708	
86	0	32664	
87	0	32648	
88	0	32732	
89	0	32856	
90	0	33008	
91	0	33200	
92	0	33380	
93	0	33524	
94	0	33594	
95	0	33528	
96	0	33340	
97	0	33140	
98	0	33024	
99	0	32964	
100	0	32922	
101	0	32852	
102	0	32808	
103	0	32808	
104	0	32848	
105	0	32836	
106	0	32804	
107	0	32760	
108	0	32744	
109	0	32792	
110	0	32888	
111	0	33036	
112	0	33196	
113	0	33312	
114	0	33448	
115	0	33420	
116	0	33340	
117	0	33265	
118	0	33160	
119	0	33080	
120	0	33004	
121	0	32964	
122	0	32996	
123	0	33100	
124	0	33264	
125	0	33432	
126	0	33516	
127	0	33620	
128	0	33792	
129	0	34056	
130	0	34372	
131	0	34640	
132	0	34824	
133	0	35000	
134	0	35112	
135	0	35064	
136	0	34916	
137	0	34712	
138	0	34522	
139	0	34388	
140	0	34256	
141	0	34192	
142	0	34200	
143	0	34268	
144	0	34368	
145	0	34416	
146	0	34432	
147	0	34444	
148	0	34472	
149	0	34528	
150	0	34648	
151	0	34896	
152	0	35128	
153	0	35320	
154	0	35396	
155	0	35288	
156	0	35048	
157	0	34720	
158	0	34400	
159	0	34080	
160	0	33788	
161	0	33624	
162	0	33536	
163	0	33520	
164	0	33544	
165	0	33496	
166	0	33324	
167	0	33176	
168	0	33076	
169	0	33092	
170	0	33244	
171	0	33484	
172	0	33708	
173	0	33884	
174	0	34020	
175	0	34032	
176	0	33928	
177	0	33756	
178	0	33624	
179	0	33496	
180	0	33424	
181	0	33376	
182	0	33354	
183	0	33400	
184	0	33464	
185	0	33540	
186	0	33488	
187	0	33408	
188	0	33404	
189	0	33460	
190	0	33592	
191	0	33772	
192	0	34000	
193	0	34180	
194	0	34296	
195	0	34216	
196	0	33912	
197	0	33540	
198	0	33208	
199	0	32928	
200	0	32688	
201	0	32514	
202	0	32396	
203	0	32365	
204	0	32412	
205	0	32420	
206	0	32284	
207	0	32152	
208	0	32176	
209	0	32308	
210	0	32520	
211	0	32800	
212	0	33048	
213	0	33240	
214	0	33324	
215	0	33248	
216	0	32952	
217	0	32576	
218	0	32288	
219	0	32080	
220	0	31920	
221	0	31900	
222	0	31952	
223	0	32036	
224	0	32204	
225	0	32288	
226	0	32288	
227	0	32316	
228	0	32448	
229	0	32552	
230	0	32644	
231	0	32828	
232	0	33048	
233	0	33252	
234	0	33420	
235	0	33420	
236	0	33152	
237	0	32788	
238	0	32480	
239	0	32272	
240	0	32128	
241	0	32002	
242	0	31960	
243	0	31996	
244	0	32100	
245	0	32112	
246	0	32072	
247	0	32028	
248	0	32044	
249	0	32136	
250	0	32304	
251	0	32532	
252	0	32732	
253	0	32900	
254	0	33044	
255	0	33052	
256	0	32840	
257	0	32548	
258	0	32304	
259	0	32120	
260	0	31880	
261	0	31672	
262	0	31456	
263	0	31308	
264	0	31264	
265	0	31200	
266	0	31052	
267	0	30874	
268	0	30768	
269	0	30712	
270	0	30704	
271	0	30844	
272	0	31188	
273	0	31684	
274	0	32272	
275	0	32696	
276	0	33008	
277	0	33376	
278	0	33964	
279	0	34780	
280	0	35772	
281	0	36992	
282	0	38336	
283	0	39824	
284	0	41444	
285	0	43158	
286	0	45032	
287	0	47224	
288	0	49864	
289	0	52624	
290	0	55384	
291	0	58116	
292	0	60528	
293	0	62488	
294	0	63704	
295	0	64336	
296	0	64608	
297	0	64688	
298	0	64688	
299	0	64640	
300	0	64552	
301	0	64464	
302	0	64336	
303	0	62496	
304	0	58784	
305	0	54816	
306	0	51092	
307	0	47876	
308	0	45112	
309	0	42648	
310	0	40632	
311	0	38994	
312	0	37600	
313	0	36476	
314	0	35712	
315	0	35032	
316	0	34328	
317	0	33616	
318	0	32968	
319	0	32372	
320	0	31788	
321	0	31268	
322	0	30884	
323	0	30588	
324	0	30404	
325	0	30160	
326	0	29852	
327	0	29548	
328	0	29384	
329	0	29360	
330	0	29408	
331	0	29528	
332	0	29696	
333	0	29820	
334	0	29872	
335	0	29728	
336	0	29424	
337	0	29040	
338	0	28696	
339	0	28368	
340	0	28136	
341	0	27980	
342	0	27912	
343	0	27984	
344	0	28136	
345	0	28228	
346	0	28248	
347	0	28224	
348	0	28212	
349	0	28284	
350	0	28396	
351	0	28617	
352	0	28888	
353	0	29080	
354	0	29268	
355	0	29232	
356	0	28972	
357	0	28592	
358	0	28216	
359	0	27940	
360	0	27740	
361	0	27632	
362	0	27648	
363	0	27772	
364	0	27960	
365	0	28076	
366	0	28104	
367	0	28112	
368	0	28166	
369	0	28300	
370	0	28576	
371	0	28856	
372	0	29056	
373	0	29276	
374	0	29468	
375	0	29456	
376	0	29250	
377	0	28984	
378	0	28760	
379	0	28636	
380	0	28588	
381	0	28644	
382	0	28792	
383	0	29000	
384	0	29192	
385	0	29316	
386	0	29328	
387	0	29344	
388	0	29404	
389	0	29532	
390	0	29692	
391	0	29932	
392	0	30180	
393	0	30424	
394	0	30612	
395	0	30552	
396	0	30260	
397	0	29916	
398	0	29568	
399	0	29288	
400	0	29120	
401	0	29032	
402	0	29036	
403	0	29164	
404	0	29328	
405	0	29376	
406	0	29328	
407	0	29308	
408	0	29360	
409	0	29530	
410	0	29836	
411	0	30172	
412	0	30516	
413	0	30816	
414	0	31048	
415	0	31032	
416	0	30804	
417	0	30524	
418	0	30296	
419	0	30152	
420	0	30074	
421	0	30072	
422	0	30156	
423	0	30288	
424	0	30496	
425	0	30556	
426	0	30488	
427	0	30432	
428	0	30560	
429	0	30788	
430	0	31136	
431	0	31528	
432	0	31792	
433	0	32000	
434	0	32104	
435	0	32016	
436	0	31744	
437	0	31376	
438	0	30996	
439	0	30716	
440	0	30576	
441	0	30576	
442	0	30640	
443	0	30788	
444	0	30976	
445	0	31016	
446	0	30912	
447	0	30796	
448	0	30792	
449	0	30988	
450	0	31330	
451	0	31704	
452	0	32084	
453	0	32504	
454	0	32788	
455	0	32810	
456	0	32584	
457	0	32304	
458	0	32026	
459	0	31810	
460	0	31600	
461	0	31512	
462	0	31532	
463	0	31560	
464	0	31616	
465	0	31622	
466	0	31568	
467	0	31564	
468	0	31660	
469	0	31914	
470	0	32328	
471	0	32826	
472	0	33320	
473	0	33724	
474	0	33996	
475	0	33996	
476	0	33844	
477	0	33532	
478	0	33204	
479	0	32982	
480	0	32920	
481	0	32976	
482	0	33060	
483	0	33140	
484	0	33268	
485	0	33336	
486	0	33268	
487	0	33287	
488	0	33424	
489	0	33636	
490	0	33936	
491	0	34312	
492	0	34728	
493	0	35120	
494	0	35420	
495	0	35476	
496	0	35336	
497	0	35160	
498	0	34968	
499	0	34768	
500	0	34660	
501	0	34644	
502	0	34744	
503	0	34920	
504	0	35168	
505	0	35348	
506	0	35400	
507	0	35500	
508	0	35640	
509	0	35824	
510	0	36080	
511	0	36376	
512	0	36688	
513	0	37012	
514	0	37304	
515	0	37364	
516	0	37188	
517	0	36948	
518	0	36704	
519	0	36516	
520	0	36440	
521	0	36496	
522	0	36664	
523	0	36920	
524	0	37168	
525	0	37284	
526	0	37248	
527	0	37192	
528	0	37240	
529	0	37436	
530	0	37736	
531	0	38116	
532	0	38464	
533	0	38736	
534	0	38876	
535	0	38776	
536	0	38524	
537	0	38296	
538	0	38056	
539	0	37856	
540	0	37656	
541	0	37568	
542	0	37608	
543	0	37668	
544	0	37780	
545	0	37724	
546	0	37580	
547	0	37460	
548	0	37412	
549	0	37464	
550	0	37616	
551	0	37840	
552	0	38048	
553	0	38268	
554	0	38412	
555	0	38264	
556	0	37912	
557	0	37512	
558	0	37148	
559	0	36772	
560	0	36400	
561	0	36104	
562	0	35932	
563	0	35868	
564	0	35828	
565	0	35544	
566	0	35140	
567	0	34836	
568	0	34620	
569	0	34472	
570	0	34462	
571	0	34492	
572	0	34564	
573	0	34616	
574	0	34616	
575	0	34316	
576	0	33824	
577	0	33304	
578	0	32836	
579	0	32388	
580	0	31968	
581	0	31656	
582	0	31516	
583	0	31442	
584	0	31400	
585	0	31184	
586	0	30880	
587	0	30672	
588	0	30576	
589	0	30580	
590	0	30656	
591	0	30797	
592	0	30960	
593	0	31132	
594	0	31146	
595	0	30836	
596	0	30296	
597	0	29784	
598	0	29312	
599	0	28904	
600	0	28556	
601	0	28360	
602	0	28332	
603	0	28380	
604	0	28452	
605	0	28380	
606	0	28264	
607	0	28216	
608	0	28280	
609	0	28348	
610	0	28490	
611	0	28674	
612	0	28888	
613	0	29128	
614	0	29244	
615	0	29044	
616	0	28584	
617	0	28112	
618	0	27752	
619	0	27504	
620	0	27392	
621	0	27396	
622	0	27440	
623	0	27544	
624	0	27642	
625	0	27632	
626	0	27548	
627	0	27544	
628	0	27692	
629	0	27888	
630	0	28105	
631	0	28340	
632	0	28610	
633	0	28864	
634	0	29056	
635	0	28948	
636	0	28614	
637	0	28188	
638	0	27788	
639	0	27568	
640	0	27448	
641	0	27420	
642	0	27421	
643	0	27560	
644	0	27680	
645	0	27674	
646	0	27600	
647	0	27640	
648	0	27668	
649	0	27792	
650	0	28052	
651	0	28428	
652	0	28844	
653	0	29276	
654	0	29512	
655	0	29400	
656	0	29088	
657	0	28756	
658	0	28464	
659	0	28232	
660	0	28156	
661	0	28248	
662	0	28428	
663	0	28636	
664	0	28832	
665	0	28884	
666	0	28844	
667	0	28872	
668	0	28960	
669	0	29132	
670	0	29344	
671	0	29596	
672	0	29816	
673	0	29988	
674	0	30060	
675	0	29874	
676	0	29488	
677	0	29120	
678	0	28820	
679	0	28632	
680	0	28532	
681	0	28476	
682	0	28544	
683	0	28748	
684	0	29016	
685	0	29112	
686	0	29065	
687	0	29108	
688	0	29248	
689	0	29452	
690	0	29688	
691	0	30008	
692	0	30312	
693	0	30548	
694	0	30656	
695	0	30458	
696	0	30068	
697	0	29752	
698	0	29514	
699	0	29300	
700	0	29152	
701	0	29108	
702	0	29156	
703	0	29284	
704	0	29444	
705	0	29488	
706	0	29480	
707	0	29504	
708	0	29560	
709	0	29668	
710	0	29876	
711	0	30188	
712	0	30548	
713	0	30904	
714	0	31136	
715	0	31068	
716	0	30764	
717	0	30412	
718	0	30140	
719	0	29876	
720	0	29664	
721	0	29552	
722	0	29608	
723	0	29760	
724	0	29900	
725	0	29896	
726	0	29808	
727	0	29776	
728	0	29754	
729	0	29796	
730	0	29984	
731	0	30332	
732	0	30696	
733	0	31024	
734	0	31240	
735	0	31112	
736	0	30772	
737	0	30384	
738	0	30024	
739	0	29756	
740	0	29648	
741	0	29724	
742	0	29868	
743	0	30048	
744	0	30236	
745	0	30280	
746	0	30280	
747	0	30356	
748	0	30472	
749	0	30674	
750	0	30964	
751	0	31288	
752	0	31482	
753	0	31584	
754	0	31568	
755	0	31332	
756	0	30924	
757	0	30536	
758	0	30248	
759	0	30016	
760	0	29900	
761	0	29944	
762	0	30076	
763	0	30272	
764	0	30384	
765	0	30340	
766	0	30248	
767	0	30268	
768	0	30396	
769	0	30596	
770	0	30924	
771	0	31316	
772	0	31660	
773	0	31970	
774	0	32040	
775	0	31828	
776	0	31424	
777	0	31012	
778	0	30684	
779	0	30392	
780	0	30136	
781	0	30008	
782	0	30092	
783	0	30272	
784	0	30484	
785	0	30512	
786	0	30452	
787	0	30492	
788	0	30620	
789	0	30828	
790	0	31064	
791	0	31344	
792	0	31698	
793	0	31992	
794	0	32116	
795	0	31860	
796	0	31480	
797	0	31132	
798	0	30848	
799	0	30620	
800	0	30448	
801	0	30416	
802	0	30484	
803	0	30652	
804	0	30786	
805	0	30760	
806	0	30688	
807	0	30700	
808	0	30772	
809	0	30892	
810	0	31112	
811	0	31452	
812	0	31828	
813	0	32192	
814	0	32376	
815	0	32256	
816	0	31864	
817	0	31428	
818	0	31052	
819	0	30836	
820	0	30748	
821	0	30756	
822	0	30856	
823	0	31034	
824	0	31200	
825	0	31152	
826	0	31068	
827	0	31120	
828	0	31248	
829	0	31400	
830	0	31608	
831	0	31888	
832	0	32200	
833	0	32488	
834	0	32608	
835	0	32424	
836	0	32132	
837	0	31748	
838	0	31480	
839	0	31276	
840	0	31148	
841	0	31140	
842	0	31224	
843	0	31450	
844	0	31640	
845	0	31600	
846	0	31424	
847	0	31364	
848	0	31456	
849	0	31604	
850	0	31820	
851	0	32130	
852	0	32480	
853	0	32776	
854	0	32884	
855	0	32716	
856	0	32372	
857	0	31956	
858	0	31585	
859	0	31288	
860	0	31088	
861	0	31072	
862	0	31144	
863	0	31312	
864	0	31458	
865	0	31444	
866	0	31360	
867	0	31332	
868	0	31372	
869	0	31544	
870	0	31856	
871	0	32224	
872	0	32568	
873	0	32848	
874	0	32940	
875	0	32740	
876	0	32416	
877	0	32056	
878	0	31764	
879	0	31504	
880	0	31340	
881	0	31296	
882	0	31344	
883	0	31464	
884	0	31552	
885	0	31552	
886	0	31564	
887	0	31648	
888	0	31784	
889	0	31960	
890	0	32196	
891	0	32480	
892	0	32748	
893	0	33028	
894	0	33192	
895	0	32996	
896	0	32644	
897	0	32308	
898	0	32001	
899	0	31804	
900	0	31736	
901	0	31784	
902	0	31896	
903	0	32064	
904	0	32196	
905	0	32184	
906	0	32052	
907	0	31940	
908	0	31920	
909	0	32048	
910	0	32304	
911	0	32632	
912	0	32922	
913	0	33176	
914	0	33288	
915	0	33116	
916	0	32836	
917	0	32464	
918	0	32132	
919	0	31860	
920	0	31760	
921	0	31808	
922	0	31916	
923	0	32048	
924	0	32116	
925	0	32048	
926	0	31984	
927	0	32072	
928	0	32248	
929	0	32500	
930	0	32844	
931	0	33152	
932	0	33444	
933	0	33680	
934	0	33724	
935	0	33416	
936	0	32984	
937	0	32600	
938	0	32260	
939	0	32004	
940	0	31856	
941	0	31824	
942	0	31888	
943	0	32108	
944	0	32276	
945	0	32288	
946	0	32208	
947	0	32192	
948	0	32276	
949	0	32490	
950	0	32848	
951	0	33280	
952	0	33720	
953	0	34060	
954	0	34096	
955	0	33834	
956	0	33424	
957	0	33044	
958	0	32704	
959	0	32362	
960	0	32112	
961	0	32024	
962	0	32088	
963	0	32244	
964	0	32298	
965	0	32156	
966	0	31964	
967	0	31950	
968	0	32048	
969	0	32240	
970	0	32512	
971	0	32824	
972	0	33170	
973	0	33528	
974	0	33720	
975	0	33604	
976	0	33236	
977	0	32768	
978	0	32320	
979	0	32016	
980	0	31940	
981	0	31964	
982	0	32112	
983	0	32364	
984	0	32592	
985	0	32632	
986	0	32576	
987	0	32556	
988	0	32596	
989	0	32736	
990	0	32988	
991	0	33296	
992	0	33572	
993	0	33852	
994	0	33956	
995	0	33744	
996	0	33396	
997	0	33032	
998	0	32788	
999	0	32592	
1000	0	32444	
1001	0	32400	
1002	0	32480	
1003	0	32672	
1004	0	32860	
1005	0	32928	
1006	0	32896	
1007	0	32904	
1008	0	32968	
1009	0	33112	
1010	0	33360	
1011	0	33626	
1012	0	33908	
1013	0	34184	
1014	0	34226	
1015	0	33940	
1016	0	33508	
1017	0	33092	
1018	0	32756	
1019	0	32464	
1020	0	32264	
1021	0	32208	
1022	0	32320	
1023	0	32560	
1024	0	32688	
1025	0	32640	
1026	0	32536	
1027	0	32568	
1028	0	32713	
1029	0	32964	
1030	0	33280	
1031	0	33592	
1032	0	33948	
1033	0	34284	
1034	0	34368	
1035	0	34148	
1036	0	33808	
1037	0	33420	
1038	0	33104	
1039	0	32848	
1040	0	32672	
1041	0	32664	
1042	0	32696	
1043	0	32796	
1044	0	32824	
1045	0	32748	
1046	0	32708	
1047	0	32772	
1048	0	32868	
1049	0	33000	
1050	0	33268	
1051	0	33584	
1052	0	33960	
1053	0	34308	
1054	0	34412	
1055	0	34204	
1056	0	33904	
1057	0	33612	
1058	0	33421	
1059	0	33344	
1060	0	33324	
1061	0	33428	
1062	0	33740	
1063	0	34108	
1064	0	34376	
1065	0	34428	
1066	0	34360	
1067	0	34336	
1068	0	34392	
1069	0	34560	
1070	0	34756	
1071	0	34992	
1072	0	35324	
1073	0	35648	
1074	0	35716	
1075	0	35444	
1076	0	35052	
1077	0	34716	
1078	0	34512	
1079	0	34340	
1080	0	34224	
1081	0	34184	
1082	0	34236	
1083	0	34348	
1084	0	34344	
1085	0	34156	
1086	0	33928	
1087	0	33864	
1088	0	33936	
1089	0	34112	
1090	0	34372	
1091	0	34640	
1092	0	34904	
1093	0	35172	
1094	0	35188	
1095	0	34900	
1096	0	34468	
1097	0	34020	
1098	0	33556	
1099	0	33128	
1100	0	32896	
1101	0	32864	
1102	0	32936	
1103	0	33120	
1104	0	33210	
1105	0	33136	
1106	0	33048	
1107	0	33092	
1108	0	33232	
1109	0	33472	
1110	0	33798	
1111	0	34120	
1112	0	34440	
1113	0	34696	
1114	0	34740	
1115	0	34464	
1116	0	34028	
1117	0	33604	
1118	0	33260	
1119	0	33028	
1120	0	32936	
1121	0	33000	
1122	0	33220	
1123	0	33484	
1124	0	33648	
1125	0	33668	
1126	0	33572	
1127	0	33556	
1128	0	33616	
1129	0	33744	
1130	0	33960	
1131	0	34204	
1132	0	34440	
1133	0	34572	
1134	0	34392	
1135	0	33872	
1136	0	33304	
1137	0	32788	
1138	0	32372	
1139	0	32056	
1140	0	31900	
1141	0	31858	
1142	0	31896	
1143	0	32004	
1144	0	32026	
1145	0	31908	
1146	0	31852	
1147	0	31940	
1148	0	32134	
1149	0	32388	
1150	0	32680	
1151	0	32980	
1152	0	33280	
1153	0	33522	
1154	0	33524	
1155	0	33252	
1156	0	32880	
1157	0	32520	
1158	0	32252	
1159	0	32048	
1160	0	32012	
1161	0	32036	
1162	0	32092	
1163	0	32212	
1164	0	32256	
1165	0	32136	
1166	0	32052	
1167	0	32116	
1168	0	32300	
1169	0	32536	
1170	0	32876	
1171	0	33236	
1172	0	33584	
1173	0	33924	
1174	0	33968	
1175	0	33708	
1176	0	33252	
1177	0	32836	
1178	0	32500	
1179	0	32234	
1180	0	32104	
1181	0	32132	
1182	0	32272	
1183	0	32516	
1184	0	32616	
1185	0	32532	
1186	0	32401	
1187	0	32368	
1188	0	32476	
1189	0	32756	
1190	0	33068	
1191	0	33340	
1192	0	33544	
1193	0	33596	
1194	0	33348	
1195	0	32848	
1196	0	32352	
1197	0	31912	
1198	0	31496	
1199	0	31068	
1200	0	30736	
1201	0	30544	
1202	0	30426	
1203	0	30480	
1204	0	30636	
1205	0	30836	
1206	0	31228	
1207	0	31864	
1208	0	32816	
1209	0	34008	
1210	0	35432	
1211	0	37016	
1212	0	38780	
1213	0	40548	
1214	0	42138	
1215	0	43468	
1216	0	44752	
1217	0	46212	
1218	0	47976	
1219	0	50240	
1220	0	52832	
1221	0	55512	
1222	0	58124	
1223	0	60496	
1224	0	62344	
1225	0	63568	
1226	0	64448	
1227	0	64960	
1228	0	65200	
1229	0	65256	
1230	0	65248	
1231	0	65176	
1232	0	65088	
1233	0	64968	
1234	0	63796	
1235	0	59528	
1236	0	55088	
1237	0	50980	
1238	0	47540	
1239	0	44600	
1240	0	42000	
1241	0	39776	
1242	0	38056	
1243	0	36584	
1244	0	35312	
1245	0	34240	
1246	0	33456	
1247	0	32868	
1248	0	32560	
1249	0	32496	
1250	0	32604	
1251	0	32712	
1252	0	32764	
1253	0	32720	
1254	0	32412	
1255	0	31932	
1256	0	31308	
1257	0	30736	
1258	0	30288	
1259	0	29908	
1260	0	29660	
1261	0	29540	
1262	0	29528	
1263	0	29592	
1264	0	29560	
1265	0	29384	
1266	0	29268	
1267	0	29260	
1268	0	29300	
1269	0	29408	
1270	0	29568	
1271	0	29792	
1272	0	30024	
1273	0	30196	
1274	0	30148	
1275	0	29860	
1276	0	29424	
1277	0	29040	
1278	0	28772	
1279	0	28552	
1280	0	28504	
1281	0	28556	
1282	0	28684	
1283	0	28848	
1284	0	28896	
1285	0	28816	
1286	0	28768	
1287	0	28800	
1288	0	28936	
1289	0	29184	
1290	0	29498	
1291	0	29864	
1292	0	30252	
1293	0	30544	
1294	0	30472	
1295	0	30176	
1296	0	29832	
1297	0	29530	
1298	0	29288	
1299	0	29096	
1300	0	29020	
1301	0	29028	
1302	0	29128	
1303	0	29276	
1304	0	29292	
1305	0	29216	
1306	0	29204	
1307	0	29296	
1308	0	29480	
1309	0	29784	
1310	0	30136	
1311	0	30460	
1312	0	30748	
1313	0	30956	
1314	0	30896	
1315	0	30564	
1316	0	30144	
1317	0	29760	
1318	0	29464	
1319	0	29268	
1320	0	29208	
1321	0	29280	
1322	0	29458	
1323	0	29672	
1324	0	29716	
1325	0	29600	
1326	0	29548	
1327	0	29636	
1328	0	29876	
1329	0	30200	
1330	0	30564	
1331	0	30912	
1332	0	31224	
1333	0	31488	
1334	0	31468	
1335	0	31208	
1336	0	30888	
1337	0	30624	
1338	0	30380	
1339	0	30160	
1340	0	30112	
1341	0	30234	
1342	0	30408	
1343	0	30596	
1344	0	30604	
1345	0	30472	
1346	0	30388	
1347	0	30408	
1348	0	30528	
1349	0	30744	
1350	0	31052	
1351	0	31408	
1352	0	31756	
1353	0	32012	
1354	0	32004	
1355	0	31802	
1356	0	31440	
1357	0	31124	
1358	0	30896	
1359	0	30704	
1360	0	30596	
1361	0	30648	
1362	0	30820	
1363	0	31002	
1364	0	31024	
1365	0	30948	
1366	0	30912	
1367	0	31008	
1368	0	31196	
1369	0	31456	
1370	0	31816	
1371	0	32252	
1372	0	32712	
1373	0	33056	
1374	0	33048	
1375	0	32800	
1376	0	32404	
1377	0	32036	
1378	0	31788	
1379	0	31632	
1380	0	31588	
1381	0	31644	
1382	0	31788	
1383	0	31980	
1384	0	31992	
1385	0	31924	
1386	0	31904	
1387	0	31960	
1388	0	32128	
1389	0	32388	
1390	0	32704	
1391	0	33012	
1392	0	33276	
1393	0	33488	
1394	0	33472	
1395	0	33240	
1396	0	32908	
1397	0	32592	
1398	0	32364	
1399	0	32216	
1400	0	32186	
1401	0	32252	
1402	0	32424	
1403	0	32676	
1404	0	32788	
1405	0	32840	
1406	0	32928	
1407	0	33090	
1408	0	33364	
1409	0	33720	
1410	0	34120	
1411	0	34516	
1412	0	34888	
1413	0	35136	
1414	0	35056	
1415	0	34780	
1416	0	34466	
1417	0	34208	
1418	0	33964	
1419	0	33800	
1420	0	33740	
1421	0	33804	
1422	0	34012	
1423	0	34272	
1424	0	34412	
1425	0	34472	
1426	0	34472	
1427	0	34540	
1428	0	34768	
1429	0	35136	
1430	0	35584	
1431	0	36072	
1432	0	36520	
1433	0	36866	
1434	0	36908	
1435	0	36668	
1436	0	36328	
1437	0	36072	
1438	0	35916	
1439	0	35864	
1440	0	35944	
1441	0	36080	
1442	0	36284	
1443	0	36496	
1444	0	36584	
1445	0	36584	
1446	0	36632	
1447	0	36796	
1448	0	37072	
1449	0	37420	
1450	0	37804	
1451	0	38200	
1452	0	38588	
1453	0	38880	
1454	0	38852	
1455	0	38576	
1456	0	38248	
1457	0	37960	
1458	0	37724	
1459	0	37560	
1460	0	37532	
1461	0	37636	
1462	0	37840	
1463	0	38032	
1464	0	38084	
1465	0	38020	
1466	0	37984	
1467	0	38060	
1468	0	38234	
1469	0	38496	
1470	0	38776	
1471	0	39028	
1472	0	39240	
1473	0	39360	
1474	0	39248	
1475	0	38904	
1476	0	38460	
1477	0	38060	
1478	0	37692	
1479	0	37408	
1480	0	37232	
1481	0	37172	
1482	0	37200	
1483	0	37284	
1484	0	37208	
1485	0	37048	
1486	0	36932	
1487	0	36896	
1488	0	36952	
1489	0	37136	
1490	0	37336	
1491	0	37532	
1492	0	37684	
1493	0	37624	
1494	0	37268	
1495	0	36760	
1496	0	36172	
1497	0	35640	
1498	0	35184	
1499	0	34836	
1500	0	34552	
1501	0	34338	
1502	0	34192	
1503	0	34092	
1504	0	33860	
1505	0	33548	
1506	0	33296	
1507	0	33092	
1508	0	32960	
1509	0	32920	
1510	0	32992	
1511	0	33156	
1512	0	33288	
1513	0	33228	
1514	0	32856	
1515	0	32360	
1516	0	31798	
1517	0	31328	
1518	0	30944	
1519	0	30658	
1520	0	30468	
1521	0	30372	
1522	0	30364	
1523	0	30388	
1524	0	30288	
1525	0	30128	
1526	0	30024	
1527	0	29996	
1528	0	30076	
1529	0	30220	
1530	0	30392	
1531	0	30560	
1532	0	30682	
1533	0	30692	
1534	0	30436	
1535	0	30040	
1536	0	29594	
1537	0	29194	
1538	0	28888	
1539	0	28692	
1540	0	28608	
1541	0	28576	
1542	0	28680	
1543	0	28808	
1544	0	28776	
1545	0	28696	
1546	0	28656	
1547	0	28636	
1548	0	28678	
1549	0	28868	
1550	0	29168	
1551	0	29468	
1552	0	29696	
1553	0	29856	
1554	0	29684	
1555	0	29352	
1556	0	29018	
1557	0	28800	
1558	0	28608	
1559	0	28456	
1560	0	28360	
1561	0	28330	
1562	0	28408	
1563	0	28516	
1564	0	28516	
1565	0	28464	
1566	0	28456	
1567	0	28492	
1568	0	28604	
1569	0	28832	
1570	0	29172	
1571	0	29524	
1572	0	29856	
1573	0	30040	
1574	0	29908	
1575	0	29616	
1576	0	29280	
1577	0	28948	
1578	0	28700	
1579	0	28524	
1580	0	28488	
1581	0	28600	
1582	0	28774	
1583	0	28920	
1584	0	28856	
1585	0	28744	
1586	0	28748	
1587	0	28852	
1588	0	29092	
1589	0	29448	
1590	0	29792	
1591	0	30144	
1592	0	30488	
1593	0	30680	
1594	0	30528	
1595	0	30192	
1596	0	29832	
1597	0	29532	
1598	0	29328	
1599	0	29224	
1600	0	29216	
1601	0	29280	
1602	0	29408	
1603	0	29560	
1604	0	29564	
1605	0	29472	
1606	0	29452	
1607	0	29548	
1608	0	29736	
1609	0	30042	
1610	0	30372	
1611	0	30720	
1612	0	31052	
1613	0	31226	
1614	0	31098	
1615	0	30800	
1616	0	30416	
1617	0	30086	
1618	0	29820	
1619	0	29704	
1620	0	29666	
1621	0	29712	
1622	0	29860	
1623	0	30000	
1624	0	30032	
1625	0	30064	
1626	0	30192	
1627	0	30384	
1628	0	30644	
1629	0	30920	
1630	0	31216	
1631	0	31492	
1632	0	31736	
1633	0	31781	
1634	0	31544	
1635	0	31124	
1636	0	30724	
1637	0	30440	
1638	0	30220	
1639	0	30140	
1640	0	30168	
1641	0	30304	
1642	0	30516	
1643	0	30656	
1644	0	30668	
1645	0	30612	
1646	0	30608	
1647	0	30716	
1648	0	30936	
1649	0	31216	
1650	0	31532	
1651	0	31884	
1652	0	32160	
1653	0	32216	
1654	0	32012	
1655	0	31616	
1656	0	31200	
1657	0	30852	
1658	0	30616	
1659	0	30512	
1660	0	30564	
1661	0	30712	
1662	0	30880	
1663	0	30948	
1664	0	30852	
1665	0	30752	
1666	0	30728	
1667	0	30788	
1668	0	30996	
1669	0	31332	
1670	0	31712	
1671	0	32096	
1672	0	32456	
1673	0	32584	
1674	0	32376	
1675	0	31984	
1676	0	31648	
1677	0	31352	
1678	0	31112	
1679	0	30984	
1680	0	30944	
1681	0	30932	
1682	0	30972	
1683	0	31004	
1684	0	30908	
1685	0	30788	
1686	0	30796	
1687	0	30888	
1688	0	31128	
1689	0	31452	
1690	0	31770	
1691	0	32056	
1692	0	32304	
1693	0	32344	
1694	0	32116	
1695	0	31768	
1696	0	31456	
1697	0	31194	
1698	0	30964	
1699	0	30808	
1700	0	30756	
1701	0	30808	
1702	0	30964	
1703	0	31032	
1704	0	30956	
1705	0	30848	
1706	0	30880	
1707	0	31024	
1708	0	31242	
1709	0	31520	
1710	0	31840	
1711	0	32164	
1712	0	32448	
1713	0	32522	
1714	0	32320	
1715	0	31980	
1716	0	31612	
1717	0	31312	
1718	0	31124	
1719	0	31032	
1720	0	31056	
1721	0	31180	
1722	0	31352	
1723	0	31424	
1724	0	31360	
1725	0	31228	
1726	0	31180	
1727	0	31224	
1728	0	31384	
1729	0	31624	
1730	0	31930	
1731	0	32224	
1732	0	32480	
1733	0	32512	
1734	0	32276	
1735	0	31896	
1736	0	31528	
1737	0	31204	
1738	0	30956	
1739	0	30828	
1740	0	30864	
1741	0	31008	
1742	0	31236	
1743	0	31432	
1744	0	31468	
1745	0	31464	
1746	0	31504	
1747	0	31632	
1748	0	31804	
1749	0	32048	
1750	0	32304	
1751	0	32604	
1752	0	32816	
1753	0	32812	
1754	0	32522	
1755	0	32108	
1756	0	31712	
1757	0	31432	
1758	0	31240	
1759	0	31204	
1760	0	31232	
1761	0	31304	
1762	0	31452	
1763	0	31480	
1764	0	31424	
1765	0	31408	
1766	0	31496	
1767	0	31664	
1768	0	31896	
1769	0	32180	
1770	0	32496	
1771	0	32816	
1772	0	33116	
1773	0	33180	
1774	0	32976	
1775	0	32664	
1776	0	32320	
1777	0	32040	
1778	0	31812	
1779	0	31688	
1780	0	31728	
1781	0	31820	
1782	0	31896	
1783	0	31928	
1784	0	31832	
1785	0	31728	
1786	0	31756	
1787	0	31836	
1788	0	32024	
1789	0	32304	
1790	0	32620	
1791	0	32928	
1792	0	33172	
1793	0	33176	
1794	0	32908	
1795	0	32504	
1796	0	32124	
1797	0	31848	
1798	0	31664	
1799	0	31564	
1800	0	31548	
1801	0	31604	
1802	0	31780	
1803	0	31900	
1804	0	31880	
1805	0	31796	
1806	0	31792	
1807	0	31884	
1808	0	32140	
1809	0	32460	
1810	0	32772	
1811	0	33072	
1812	0	33348	
1813	0	33396	
1814	0	33168	
1815	0	32828	
1816	0	32508	
1817	0	32292	
1818	0	32092	
1819	0	31962	
1820	0	31906	
1821	0	31960	
1822	0	32096	
1823	0	32188	
1824	0	32160	
1825	0	32040	
1826	0	32028	
1827	0	32120	
1828	0	32304	
1829	0	32556	
1830	0	32844	
1831	0	33096	
1832	0	33300	
1833	0	33312	
1834	0	33052	
1835	0	32692	
1836	0	32344	
1837	0	32052	
1838	0	31816	
1839	0	31732	
1840	0	31760	
1841	0	31860	
1842	0	32040	
1843	0	32116	
1844	0	32040	
1845	0	31953	
1846	0	31972	
1847	0	32064	
1848	0	32288	
1849	0	32572	
1850	0	32896	
1851	0	33224	
1852	0	33536	
1853	0	33628	
1854	0	33460	
1855	0	33176	
1856	0	32868	
1857	0	32600	
1858	0	32384	
1859	0	32292	
1860	0	32280	
1861	0	32356	
1862	0	32484	
1863	0	32496	
1864	0	32392	
1865	0	32272	
1866	0	32328	
1867	0	32480	
1868	0	32684	
1869	0	32868	
1870	0	33092	
1871	0	33360	
1872	0	33652	
1873	0	33738	
1874	0	33624	
1875	0	33400	
1876	0	33072	
1877	0	32808	
1878	0	32584	
1879	0	32488	
1880	0	32480	
1881	0	32576	
1882	0	32704	
1883	0	32714	
1884	0	32588	
1885	0	32480	
1886	0	32484	
1887	0	32580	
1888	0	32768	
1889	0	33032	
1890	0	33272	
1891	0	33488	
1892	0	33620	
1893	0	33580	
1894	0	33269	
1895	0	32920	
1896	0	32616	
1897	0	32360	
1898	0	32140	
1899	0	32016	
1900	0	32028	
1901	0	32144	
1902	0	32292	
1903	0	32352	
1904	0	32304	
1905	0	32268	
1906	0	32316	
1907	0	32448	
1908	0	32728	
1909	0	33072	
1910	0	33480	
1911	0	33828	
1912	0	34088	
1913	0	34076	
1914	0	33808	
1915	0	33408	
1916	0	33014	
1917	0	32680	
1918	0	32448	
1919	0	32352	
1920	0	32404	
1921	0	32560	
1922	0	32784	
1923	0	32816	
1924	0	32696	
1925	0	32616	
1926	0	32641	
1927	0	32772	
1928	0	32996	
1929	0	33288	
1930	0	33592	
1931	0	33860	
1932	0	34064	
1933	0	34016	
1934	0	33752	
1935	0	33416	
1936	0	33108	
1937	0	32832	
1938	0	32632	
1939	0	32532	
1940	0	32552	
1941	0	32648	
1942	0	32752	
1943	0	32756	
1944	0	32648	
1945	0	32584	
1946	0	32636	
1947	0	32752	
1948	0	32952	
1949	0	33208	
1950	0	33464	
1951	0	33752	
1952	0	33952	
1953	0	33884	
1954	0	33592	
1955	0	33146	
1956	0	32740	
1957	0	32432	
1958	0	32225	
1959	0	32112	
1960	0	32140	
1961	0	32296	
1962	0	32540	
1963	0	32634	
1964	0	32618	
1965	0	32612	
1966	0	32676	
1967	0	32784	
1968	0	32972	
1969	0	33248	
1970	0	33588	
1971	0	33912	
1972	0	34148	
1973	0	34132	
1974	0	33862	
1975	0	33468	
1976	0	33152	
1977	0	32888	
1978	0	32676	
1979	0	32532	
1980	0	32488	
1981	0	32556	
1982	0	32672	
1983	0	32712	
1984	0	32648	
1985	0	32580	
1986	0	32608	
1987	0	32740	
1988	0	32936	
1989	0	33276	
1990	0	33660	
1991	0	34060	
1992	0	34372	
1993	0	34444	
1994	0	34264	
1995	0	33976	
1996	0	33736	
1997	0	33524	
1998	0	33420	
1999	0	33416	
2000	0	33480	
2001	0	33664	
2002	0	33880	
2003	0	33956	
2004	0	33920	
2005	0	33896	
2006	0	33952	
2007	0	34052	
2008	0	34268	
2009	0	34504	
2010	0	34756	
2011	0	35032	
2012	0	35316	
2013	0	35361	
2014	0	35170	
2015	0	34860	
2016	0	34520	
2017	0	34208	
2018	0	33976	
2019	0	33840	
2020	0	33784	
2021	0	33856	
2022	0	33992	
2023	0	33992	
2024	0	33888	
2025	0	33784	
2026	0	33740	
2027	0	33804	
2028	0	33984	
2029	0	34216	
2030	0	34496	
2031	0	34728	
2032	0	34848	
2033	0	34720	
2034	0	34396	
2035	0	33996	
2036	0	33628	
2037	0	33320	
2038	0	33104	
2039	0	32996	
2040	0	32984	
2041	0	33032	
2042	0	33120	
2043	0	33156	
2044	0	33088	
2045	0	33096	
2046	0	33168	
2047	0	33272	
2048	0	33520	
2049	0	33840	
2050	0	34152	
2051	0	34388	
2052	0	34544	
2053	0	34460	
2054	0	34184	
2055	0	33836	
2056	0	33516	
2057	0	33252	
2058	0	33048	
2059	0	32984	
2060	0	32952	
2061	0	33012	
2062	0	33136	
2063	0	33082	
2064	0	32936	
2065	0	32796	
2066	0	32808	
2067	0	32916	
2068	0	33084	
2069	0	33320	
2070	0	33528	
2071	0	33740	
2072	0	33888	
2073	0	33764	
2074	0	33468	
2075	0	33128	
2076	0	32792	
2077	0	32496	
2078	0	32236	
2079	0	32068	
2080	0	32016	
2081	0	32044	
2082	0	32160	
2083	0	32182	
2084	0	32104	
2085	0	32040	
2086	0	32088	
2087	0	32212	
2088	0	32436	
2089	0	32760	
2090	0	33098	
2091	0	33404	
2092	0	33632	
2093	0	33510	
2094	0	33152	
2095	0	32776	
2096	0	32400	
2097	0	32096	
2098	0	31900	
2099	0	31808	
2100	0	31848	
2101	0	31984	
2102	0	32168	
2103	0	32184	
2104	0	32084	
2105	0	32020	
2106	0	32044	
2107	0	32168	
2108	0	32392	
2109	0	32676	
2110	0	32988	
2111	0	33268	
2112	0	33506	
2113	0	33480	
2114	0	33232	
2115	0	32908	
2116	0	32632	
2117	0	32376	
2118	0	32176	
2119	0	32088	
2120	0	32096	
2121	0	32208	
2122	0	32380	
2123	0	32400	
2124	0	32324	
2125	0	32248	
2126	0	32254	
2127	0	32332	
2128	0	32396	
2129	0	32452	
2130	0	32512	
2131	0	32616	
2132	0	32660	
2133	0	32416	
2134	0	31960	
2135	0	31468	
2136	0	30976	
2137	0	30538	
2138	0	30268	
2139	0	30344	
2140	0	30666	
2141	0	31252	
2142	0	31948	
2143	0	32644	
2144	0	33428	
2145	0	34400	
2146	0	35572	
2147	0	37000	
2148	0	38568	
2149	0	40232	
2150	0	42020	
2151	0	43856	
2152	0	45736	
2153	0	47592	
2154	0	49628	
2155	0	51952	
2156	0	54348	
2157	0	56728	
2158	0	58984	
2159	0	61008	
2160	0	62688	
2161	0	63828	
2162	0	64404	
2163	0	64656	
2164	0	64752	
2165	0	64736	
2166	0	64668	
2167	0	64584	
2168	0	64492	
2169	0	64380	
2170	0	64276	
2171	0	62576	
2172	0	57788	
2173	0	53568	
2174	0	49932	
2175	0	46728	
2176	0	43928	
2177	0	41472	
2178	0	39360	
2179	0	37508	
2180	0	36044	
2181	0	35080	
2182	0	34440	
2183	0	33832	
2184	0	33312	
2185	0	32896	
2186	0	32560	
2187	0	32236	
2188	0	31988	
2189	0	31852	
2190	0	31788	
2191	0	31772	
2192	0	31672	
2193	0	31336	
2194	0	30896	
2195	0	30392	
2196	0	29904	
2197	0	29468	
2198	0	29132	
2199	0	28890	
2200	0	28768	
2201	0	28716	
2202	0	28688	
2203	0	28600	
2204	0	28480	
2205	0	28424	
2206	0	28436	
2207	0	28516	
2208	0	28672	
2209	0	28872	
2210	0	29064	
2211	0	29232	
2212	0	29320	
2213	0	29160	
2214	0	28824	
2215	0	28456	
2216	0	28160	
2217	0	27936	
2218	0	27808	
2219	0	27762	
2220	0	27816	
2221	0	27976	
2222	0	28136	
2223	0	28136	
2224	0	28048	
2225	0	28024	
2226	0	28065	
2227	0	28200	
2228	0	28480	
2229	0	28864	
2230	0	29240	
2231	0	29580	
2232	0	29744	
2233	0	29580	
2234	0	29240	
2235	0	28896	
2236	0	28640	
2237	0	28400	
2238	0	28236	
2239	0	28188	
2240	0	28256	
2241	0	28432	
2242	0	28608	
2243	0	28616	
2244	0	28526	
2245	0	28492	
2246	0	28568	
2247	0	28720	
2248	0	29000	
2249	0	29324	
2250	0	29688	
2251	0	30048	
2252	0	30304	
2253	0	30240	
2254	0	29988	
2255	0	29652	
2256	0	29368	
2257	0	29130	
2258	0	29008	
2259	0	28996	
2260	0	29080	
2261	0	29200	
2262	0	29332	
2263	0	29296	
2264	0	29178	
2265	0	29152	
2266	0	29264	
2267	0	29425	
2268	0	29696	
2269	0	30052	
2270	0	30428	
2271	0	30784	
2272	0	30944	
2273	0	30814	
2274	0	30504	
2275	0	30152	
2276	0	29868	
2277	0	29652	
2278	0	29524	
2279	0	29512	
2280	0	29610	
2281	0	29772	
2282	0	29904	
2283	0	29892	
2284	0	29812	
2285	0	29796	
2286	0	29872	
2287	0	30016	
2288	0	30264	
2289	0	30580	
2290	0	30940	
2291	0	31308	
2292	0	31560	
2293	0	31514	
2294	0	31228	
2295	0	30892	
2296	0	30612	
2297	0	30380	
2298	0	30232	
2299	0	30188	
2300	0	30240	
2301	0	30388	
2302	0	30528	
2303	0	30528	
2304	0	30432	
2305	0	30400	
2306	0	30464	
2307	0	30608	
2308	0	30868	
2309	0	31184	
2310	0	31568	
2311	0	31920	
2312	0	32060	
2313	0	31888	
2314	0	31544	
2315	0	31208	
2316	0	30954	
2317	0	30796	
2318	0	30696	
2319	0	30672	
2320	0	30744	
2321	0	30912	
2322	0	31108	
2323	0	31176	
2324	0	31160	
2325	0	31232	
2326	0	31392	
2327	0	31688	
2328	0	32072	
2329	0	32460	
2330	0	32874	
2331	0	33256	
2332	0	33444	
2333	0	33268	
2334	0	32904	
2335	0	32536	
2336	0	32248	
2337	0	32008	
2338	0	31904	
2339	0	31944	
2340	0	32032	
2341	0	32240	
2342	0	32432	
2343	0	32464	
2344	0	32460	
2345	0	32520	
2346	0	32676	
2347	0	32896	
2348	0	33224	
2349	0	33588	
2350	0	33952	
2351	0	34280	
2352	0	34472	
2353	0	34420	
2354	0	34220	
2355	0	33978	
2356	0	33728	
2357	0	33556	
2358	0	33512	
2359	0	33544	
2360	0	33652	
2361	0	33908	
2362	0	34104	
2363	0	34160	
2364	0	34144	
2365	0	34232	
2366	0	34392	
2367	0	34656	
2368	0	35032	
2369	0	35420	
2370	0	35847	
2371	0	36228	
2372	0	36476	
2373	0	36416	
2374	0	36200	
2375	0	35936	
2376	0	35744	
2377	0	35640	
2378	0	35640	
2379	0	35756	
2380	0	35920	
2381	0	36144	
2382	0	36340	
2383	0	36392	
2384	0	36366	
2385	0	36420	
2386	0	36632	
2387	0	36962	
2388	0	37320	
2389	0	37696	
2390	0	38092	
2391	0	38440	
2392	0	38600	
2393	0	38500	
2394	0	38212	
2395	0	37880	
2396	0	37616	
2397	0	37388	
2398	0	37276	
2399	0	37232	
2400	0	37264	
2401	0	37392	
2402	0	37520	
2403	0	37476	
2404	0	37368	
2405	0	37356	
2406	0	37484	
2407	0	37704	
2408	0	37976	
2409	0	38240	
2410	0	38540	
2411	0	38808	
2412	0	38896	
2413	0	38708	
2414	0	38372	
2415	0	37972	
2416	0	37636	
2417	0	37344	
2418	0	37144	
2419	0	37052	
2420	0	37088	
2421	0	37184	
2422	0	37208	
2423	0	37080	
2424	0	36924	
2425	0	36800	
2426	0	36772	
2427	0	36804	
2428	0	36832	
2429	0	36884	
2430	0	36924	
2431	0	36952	
2432	0	36796	
2433	0	36368	
2434	0	35824	
2435	0	35244	
2436	0	34708	
2437	0	34272	
2438	0	33900	
2439	0	33628	
2440	0	33496	
2441	0	33420	
2442	0	33300	
2443	0	33040	
2444	0	32800	
2445	0	32596	
2446	0	32496	
2447	0	32480	
2448	0	32520	
2449	0	32584	
2450	0	32660	
2451	0	32712	
2452	0	32588	
2453	0	32176	
2454	0	31628	
2455	0	31128	
2456	0	30700	
2457	0	30328	
2458	0	30076	
2459	0	29940	
2460	0	29864	
2461	0	29900	
2462	0	29892	
2463	0	29716	
2464	0	29520	
2465	0	29408	
2466	0	29376	
2467	0	29440	
2468	0	29588	
2469	0	29776	
2470	0	29976	
2471	0	30184	
2472	0	30176	
2473	0	29856	
2474	0	29492	
2475	0	29100	
2476	0	28764	
2477	0	28500	
2478	0	28352	
2479	0	28252	
2480	0	28256	
2481	0	28336	
2482	0	28340	
2483	0	28224	
2484	0	28104	
2485	0	28066	
2486	0	28148	
2487	0	28296	
2488	0	28536	
2489	0	28800	
2490	0	29068	
2491	0	29360	
2492	0	29450	
2493	0	29260	
2494	0	28868	
2495	0	28504	
2496	0	28224	
2497	0	28012	
2498	0	27906	
2499	0	27864	
2500	0	27928	
2501	0	28104	
2502	0	28260	
2503	0	28284	
2504	0	28248	
2505	0	28272	
2506	0	28376	
2507	0	28556	
2508	0	28888	
2509	0	29192	
2510	0	29508	
2511	0	29796	
2512	0	29904	
2513	0	29766	
2514	0	29416	
2515	0	29044	
2516	0	28744	
2517	0	28548	
2518	0	28472	
2519	0	28472	
2520	0	28544	
2521	0	28732	
2522	0	28892	
2523	0	28936	
2524	0	28904	
2525	0	28896	
2526	0	28992	
2527	0	29180	
2528	0	29466	
2529	0	29732	
2530	0	29972	
2531	0	30200	
2532	0	30238	
2533	0	30068	
2534	0	29776	
2535	0	29440	
2536	0	29168	
2537	0	28996	
2538	0	28920	
2539	0	28952	
2540	0	29028	
2541	0	29152	
2542	0	29240	
2543	0	29240	
2544	0	29228	
2545	0	29310	
2546	0	29484	
2547	0	29750	
2548	0	30104	
2549	0	30448	
2550	0	30776	
2551	0	31008	
2552	0	31040	
2553	0	30828	
2554	0	30498	
2555	0	30208	
2556	0	29972	
2557	0	29772	
2558	0	29680	
2559	0	29708	
2560	0	29822	
2561	0	30000	
2562	0	30088	
2563	0	30076	
2564	0	30040	
2565	0	30108	
2566	0	30256	
2567	0	30504	
2568	0	30808	
2569	0	31116	
2570	0	31392	
2571	0	31640	
2572	0	31712	
2573	0	31496	
2574	0	31128	
2575	0	30756	
2576	0	30508	
2577	0	30306	
2578	0	30220	
2579	0	30276	
2580	0	30412	
2581	0	30616	
2582	0	30768	
2583	0	30780	
2584	0	30736	
2585	0	30748	
2586	0	30840	
2587	0	31024	
2588	0	31332	
2589	0	31668	
2590	0	32000	
2591	0	32256	
2592	0	32308	
2593	0	32096	
2594	0	31728	
2595	0	31360	
2596	0	31088	
2597	0	30844	
2598	0	30728	
2599	0	30730	
2600	0	30849	
2601	0	31028	
2602	0	31144	
2603	0	31128	
2604	0	31080	
2605	0	31128	
2606	0	31284	
2607	0	31456	
2608	0	31716	
2609	0	32032	
2610	0	32312	
2611	0	32556	
2612	0	32610	
2613	0	32348	
2614	0	31932	
2615	0	31524	
2616	0	31200	
2617	0	31000	
2618	0	30904	
2619	0	30920	
2620	0	31008	
2621	0	31212	
2622	0	31308	
2623	0	31280	
2624	0	31232	
2625	0	31268	
2626	0	31404	
2627	0	31584	
2628	0	31848	
2629	0	32168	
2630	0	32476	
2631	0	32700	
2632	0	32696	
2633	0	32448	
2634	0	32076	
2635	0	31696	
2636	0	31440	
2637	0	31216	
2638	0	31116	
2639	0	31108	
2640	0	31188	
2641	0	31336	
2642	0	31456	
2643	0	31392	
2644	0	31312	
2645	0	31320	
2646	0	31388	
2647	0	31568	
2648	0	31832	
2649	0	32076	
2650	0	32308	
2651	0	32512	
2652	0	32440	
2653	0	32148	
2654	0	31816	
2655	0	31520	
2656	0	31322	
2657	0	31144	
2658	0	31060	
2659	0	31112	
2660	0	31232	
2661	0	31412	
2662	0	31496	
2663	0	31412	
2664	0	31328	
2665	0	31316	
2666	0	31412	
2667	0	31656	
2668	0	31976	
2669	0	32324	
2670	0	32628	
2671	0	32900	
2672	0	32884	
2673	0	32608	
2674	0	32208	
2675	0	31840	
2676	0	31560	
2677	0	31376	
2678	0	31296	
2679	0	31320	
2680	0	31432	
2681	0	31640	
2682	0	31660	
2683	0	31560	
2684	0	31484	
2685	0	31536	
2686	0	31652	
2687	0	31840	
2688	0	32136	
2689	0	32432	
2690	0	32700	
2691	0	32912	
2692	0	32888	
2693	0	32640	
2694	0	32300	
2695	0	31960	
2696	0	31680	
2697	0	31480	
2698	0	31392	
2699	0	31396	
2700	0	31500	
2701	0	31660	
2702	0	31732	
2703	0	31664	
2704	0	31596	
2705	0	31656	
2706	0	31800	
2707	0	32020	
2708	0	32292	
2709	0	32556	
2710	0	32788	
2711	0	32984	
2712	0	32936	
2713	0	32700	
2714	0	32388	
2715	0	32068	
2716	0	31820	
2717	0	31620	
2718	0	31508	
2719	0	31508	
2720	0	31596	
2721	0	31768	
2722	0	31824	
2723	0	31752	
2724	0	31688	
2725	0	31714	
2726	0	31844	
2727	0	32064	
2728	0	32312	
2729	0	32580	
2730	0	32864	
2731	0	33138	
2732	0	33180	
2733	0	32952	
2734	0	32588	
2735	0	32244	
2736	0	31956	
2737	0	31736	
2738	0	31656	
2739	0	31706	
2740	0	31824	
2741	0	32024	
2742	0	32088	
2743	0	32064	
2744	0	32048	
2745	0	32108	
2746	0	32258	
2747	0	32488	
2748	0	32736	
2749	0	33032	
2750	0	33300	
2751	0	33532	
2752	0	33488	
2753	0	33194	
2754	0	32804	
2755	0	32456	
2756	0	32176	
2757	0	31984	
2758	0	31880	
2759	0	31888	
2760	0	32004	
2761	0	32176	
2762	0	32220	
2763	0	32168	
2764	0	32112	
2765	0	32176	
2766	0	32312	
2767	0	32520	
2768	0	32820	
2769	0	33108	
2770	0	33336	
2771	0	33496	
2772	0	33452	
2773	0	33208	
2774	0	32794	
2775	0	32400	
2776	0	32112	
2777	0	31928	
2778	0	31892	
2779	0	31952	
2780	0	32090	
2781	0	32272	
2782	0	32314	
2783	0	32228	
2784	0	32176	
2785	0	32244	
2786	0	32408	
2787	0	32632	
2788	0	32928	
2789	0	33244	
2790	0	33556	
2791	0	33792	
2792	0	33724	
2793	0	33472	
2794	0	33120	
2795	0	32796	
2796	0	32536	
2797	0	32296	
2798	0	32160	
2799	0	32172	
2800	0	32260	
2801	0	32392	
2802	0	32430	
2803	0	32368	
2804	0	32312	
2805	0	32314	
2806	0	32436	
2807	0	32656	
2808	0	32940	
2809	0	33224	
2810	0	33450	
2811	0	33624	
2812	0	33528	
2813	0	33244	
2814	0	32872	
2815	0	32564	
2816	0	32360	
2817	0	32192	
2818	0	32144	
2819	0	32176	
2820	0	32276	
2821	0	32440	
2822	0	32456	
2823	0	32380	
2824	0	32312	
2825	0	32396	
2826	0	32616	
2827	0	32940	
2828	0	33300	
2829	0	33592	
2830	0	33844	
2831	0	34020	
2832	0	33924	
2833	0	33580	
2834	0	33168	
2835	0	32740	
2836	0	32372	
2837	0	32128	
2838	0	31984	
2839	0	31988	
2840	0	32104	
2841	0	32280	
2842	0	32304	
2843	0	32252	
2844	0	32216	
2845	0	32260	
2846	0	32416	
2847	0	32668	
2848	0	32996	
2849	0	33288	
2850	0	33504	
2851	0	33664	
2852	0	33556	
2853	0	33236	
2854	0	32868	
2855	0	32528	
2856	0	32280	
2857	0	32136	
2858	0	32104	
2859	0	32156	
2860	0	32312	
2861	0	32516	
2862	0	32524	
2863	0	32480	
2864	0	32456	
2865	0	32496	
2866	0	32652	
2867	0	32860	
2868	0	33104	
2869	0	33390	
2870	0	33664	
2871	0	33848	
2872	0	33776	
2873	0	33488	
2874	0	33108	
2875	0	32730	
2876	0	32432	
2877	0	32220	
2878	0	32148	
2879	0	32212	
2880	0	32412	
2881	0	32576	
2882	0	32560	
2883	0	32512	
2884	0	32464	
2885	0	32512	
2886	0	32648	
2887	0	32892	
2888	0	33184	
2889	0	33457	
2890	0	33712	
2891	0	33920	
2892	0	33824	
2893	0	33474	
2894	0	33056	
2895	0	32704	
2896	0	32444	
2897	0	32284	
2898	0	32244	
2899	0	32290	
2900	0	32460	
2901	0	32644	
2902	0	32672	
2903	0	32612	
2904	0	32552	
2905	0	32596	
2906	0	32696	
2907	0	32880	
2908	0	33092	
2909	0	33356	
2910	0	33656	
2911	0	33940	
2912	0	33928	
2913	0	33692	
2914	0	33344	
2915	0	33032	
2916	0	32784	
2917	0	32604	
2918	0	32548	
2919	0	32580	
2920	0	32668	
2921	0	32800	
2922	0	32756	
2923	0	32628	
2924	0	32576	
2925	0	32664	
2926	0	32784	
2927	0	32972	
2928	0	33224	
2929	0	33504	
2930	0	33732	
2931	0	33872	
2932	0	33732	
2933	0	33400	
2934	0	33048	
2935	0	32744	
2936	0	32492	
2937	0	32352	
2938	0	32314	
2939	0	32368	
2940	0	32512	
2941	0	32644	
2942	0	32648	
2943	0	32568	
2944	0	32552	
2945	0	32596	
2946	0	32708	
2947	0	32928	
2948	0	33216	
2949	0	33504	
2950	0	33760	
2951	0	33924	
2952	0	33808	
2953	0	33488	
2954	0	33144	
2955	0	32848	
2956	0	32628	
2957	0	32484	
2958	0	32388	
2959	0	32380	
2960	0	32504	
2961	0	32680	
2962	0	32728	
2963	0	32740	
2964	0	32788	
2965	0	32876	
2966	0	32992	
2967	0	33200	
2968	0	33472	
2969	0	33792	
2970	0	34052	
2971	0	34148	
2972	0	33920	
2973	0	33600	
2974	0	33252	
2975	0	32992	
2976	0	32816	
2977	0	32688	
2978	0	32626	
2979	0	32674	
2980	0	32812	
2981	0	32972	
2982	0	33032	
2983	0	33012	
2984	0	33080	
2985	0	33240	
2986	0	33512	
2987	0	33872	
2988	0	34228	
2989	0	34568	
2990	0	34888	
2991	0	35084	
2992	0	35012	
2993	0	34784	
2994	0	34500	
2995	0	34212	
2996	0	33976	
2997	0	33800	
2998	0	33716	
2999	0	33764	
3000	0	33900	
3001	0	34052	
3002	0	34032	
3003	0	33956	
3004	0	33940	
3005	0	34056	
3006	0	34304	
3007	0	34624	
3008	0	34944	
3009	0	35188	
3010	0	35424	
3011	0	35512	
3012	0	35324	
3013	0	34946	
3014	0	34520	
3015	0	34140	
3016	0	33860	
3017	0	33656	
3018	0	33538	
3019	0	33464	
3020	0	33492	
3021	0	33528	
3022	0	33440	
3023	0	33292	
3024	0	33194	
3025	0	33172	
3026	0	33256	
3027	0	33400	
3028	0	33600	
3029	0	33856	
3030	0	34044	
3031	0	34124	
3032	0	33976	
3033	0	33708	
3034	0	33396	
3035	0	33140	
3036	0	32980	
3037	0	32914	
3038	0	32932	
3039	0	32986	
3040	0	33096	
3041	0	33200	
3042	0	33172	
3043	0	33076	
3044	0	33036	
3045	0	33084	
3046	0	33208	
3047	0	33460	
3048	0	33736	
3049	0	33980	
3050	0	34220	
3051	0	34320	
3052	0	34148	
3053	0	33785	
3054	0	33416	
3055	0	33084	
3056	0	32824	
3057	0	32636	
3058	0	32532	
3059	0	32564	
3060	0	32660	
3061	0	32712	
3062	0	32616	
3063	0	32442	
3064	0	32336	
3065	0	32328	
3066	0	32424	
3067	0	32616	
3068	0	32888	
3069	0	33120	
3070	0	33306	
3071	0	33352	
3072	0	33104	
3073	0	32744	
3074	0	32376	
3075	0	32108	
3076	0	31930	
3077	0	31848	
3078	0	31852	
3079	0	31880	
3080	0	31988	
3081	0	32104	
3082	0	32120	
3083	0	32080	
3084	0	32112	
3085	0	32192	
3086	0	32348	
3087	0	32584	
3088	0	32888	
3089	0	33132	
3090	0	33308	
3091	0	33344	
3092	0	33136	
3093	0	32812	
3094	0	32432	
3095	0	32122	
3096	0	31896	
3097	0	31744	
3098	0	31704	
3099	0	31736	
3100	0	31840	
3101	0	31956	
3102	0	31952	
3103	0	31924	
3104	0	31946	
3105	0	32052	
3106	0	32212	
3107	0	32472	
3108	0	32752	
3109	0	33064	
3110	0	33260	
3111	0	33304	
3112	0	33132	
3113	0	32824	
3114	0	32528	
3115	0	32328	
3116	0	32132	
3117	0	32012	
3118	0	31920	
3119	0	31852	
3120	0	31800	
3121	0	31740	
3122	0	31516	
3123	0	31296	
3124	0	31172	
3125	0	31096	
3126	0	31096	
3127	0	31224	
3128	0	31356	
3129	0	31436	
3130	0	31632	
3131	0	31904	
3132	0	32108	
3133	0	32300	
3134	0	32548	
3135	0	32980	
3136	0	33632	
3137	0	34464	
3138	0	35476	
3139	0	36756	
3140	0	38152	
3141	0	39548	
3142	0	40940	
3143	0	42400	
3144	0	44080	
3145	0	46160	
3146	0	48704	
3147	0	51636	
3148	0	54512	
3149	0	57316	
3150	0	59832	
3151	0	61920	
3152	0	63400	
3153	0	64216	
3154	0	64584	
3155	0	64740	
3156	0	64760	
3157	0	64720	
3158	0	64644	
3159	0	64548	
3160	0	64464	
3161	0	64336	
3162	0	64232	
3163	0	60868	
3164	0	56320	
3165	0	52496	
3166	0	49428	
3167	0	46920	
3168	0	44704	
3169	0	42776	
3170	0	41072	
3171	0	39404	
3172	0	37784	
3173	0	36376	
3174	0	35220	
3175	0	34284	
3176	0	33532	
3177	0	32928	
3178	0	32452	
3179	0	32032	
3180	0	31652	
3181	0	31292	
3182	0	30884	
3183	0	30528	
3184	0	30256	
3185	0	30082	
3186	0	30000	
3187	0	30000	
3188	0	30080	
3189	0	30152	
3190	0	30180	
3191	0	30040	
3192	0	29704	
3193	0	29264	
3194	0	28824	
3195	0	28416	
3196	0	28112	
3197	0	27884	
3198	0	27768	
3199	0	27772	
3200	0	27800	
3201	0	27754	
3202	0	27672	
3203	0	27620	
3204	0	27668	
3205	0	27792	
3206	0	28000	
3207	0	28280	
3208	0	28560	
3209	0	28800	
3210	0	28980	
3211	0	29008	
3212	0	28828	
3213	0	28536	
3214	0	28272	
3215	0	28072	
3216	0	27952	
3217	0	27882	
3218	0	27924	
3219	0	28028	
3220	0	28184	
3221	0	28272	
3222	0	28248	
3223	0	28232	
3224	0	28304	
3225	0	28424	
3226	0	28600	
3227	0	28816	
3228	0	29024	
3229	0	29204	
3230	0	29404	
3231	0	29456	
3232	0	29272	
3233	0	29028	
3234	0	28800	
3235	0	28648	
3236	0	28520	
3237	0	28492	
3238	0	28528	
3239	0	28616	
3240	0	28716	
3241	0	28746	
3242	0	28692	
3243	0	28644	
3244	0	28628	
3245	0	28728	
3246	0	28920	
3247	0	29168	
3248	0	29496	
3249	0	29820	
3250	0	30104	
3251	0	30170	
3252	0	29984	
3253	0	29680	
3254	0	29362	
3255	0	29176	
3256	0	29064	
3257	0	29044	
3258	0	29100	
3259	0	29224	
3260	0	29376	
3261	0	29476	
3262	0	29480	
3263	0	29468	
3264	0	29544	
3265	0	29660	
3266	0	29860	
3267	0	30168	
3268	0	30492	
3269	0	30768	
3270	0	30968	
3271	0	31064	
3272	0	30888	
3273	0	30632	
3274	0	30336	
3275	0	30104	
3276	0	29992	
3277	0	29960	
3278	0	29994	
3279	0	30058	
3280	0	30192	
3281	0	30284	
3282	0	30236	
3283	0	30160	
3284	0	30176	
3285	0	30298	
3286	0	30528	
3287	0	30772	
3288	0	31048	
3289	0	31332	
3290	0	31592	
3291	0	31692	
3292	0	31552	
3293	0	31260	
3294	0	30936	
3295	0	30652	
3296	0	30492	
3297	0	30436	
3298	0	30432	
3299	0	30520	
3300	0	30688	
3301	0	30772	
3302	0	30764	
3303	0	30704	
3304	0	30756	
3305	0	30916	
3306	0	31152	
3307	0	31448	
3308	0	31740	
3309	0	32028	
3310	0	32312	
3311	0	32358	
3312	0	32192	
3313	0	31888	
3314	0	31592	
3315	0	31372	
3316	0	31236	
3317	0	31176	
3318	0	31240	
3319	0	31408	
3320	0	31632	
3321	0	31764	
3322	0	31732	
3323	0	31668	
3324	0	31672	
3325	0	31780	
3326	0	32016	
3327	0	32352	
3328	0	32680	
3329	0	32980	
3330	0	33248	
3331	0	33304	
3332	0	33160	
3333	0	32924	
3334	0	32716	
3335	0	32570	
3336	0	32456	
3337	0	32440	
3338	0	32532	
3339	0	32688	
3340	0	32896	
3341	0	33064	
3342	0	33096	
3343	0	33056	
3344	0	33104	
3345	0	33276	
3346	0	33524	
3347	0	33844	
3348	0	34176	
3349	0	34502	
3350	0	34784	
3351	0	34872	
3352	0	34768	
3353	0	34588	
3354	0	34480	
3355	0	34400	
3356	0	34336	
3357	0	34312	
3358	0	34384	
3359	0	34588	
3360	0	34860	
3361	0	35028	
3362	0	35096	
3363	0	35128	
3364	0	35256	
3365	0	35452	
3366	0	35732	
3367	0	36064	
3368	0	36360	
3369	0	36656	
3370	0	36952	
3371	0	37124	
3372	0	37092	
3373	0	36960	
3374	0	36832	
3375	0	36724	
3376	0	36668	
3377	0	36688	
3378	0	36776	
3379	0	36944	
3380	0	37140	
3381	0	37216	
3382	0	37220	
3383	0	37268	
3384	0	37384	
3385	0	37532	
3386	0	37752	
3387	0	38018	
3388	0	38328	
3389	0	38600	
3390	0	38804	
3391	0	38856	
3392	0	38712	
3393	0	38472	
3394	0	38232	
3395	0	38084	
3396	0	38040	
3397	0	38080	
3398	0	38164	
3399	0	38320	
3400	0	38448	
3401	0	38480	
3402	0	38368	
3403	0	38288	
3404	0	38264	
3405	0	38332	
3406	0	38424	
3407	0	38560	
3408	0	38736	
3409	0	38884	
3410	0	38984	
3411	0	38892	
3412	0	38576	
3413	0	38216	
3414	0	37860	
3415	0	37560	
3416	0	37228	
3417	0	37012	
3418	0	36900	
3419	0	36856	
3420	0	36852	
3421	0	36752	
3422	0	36528	
3423	0	36304	
3424	0	36132	
3425	0	36016	
3426	0	36008	
3427	0	36000	
3428	0	35972	
3429	0	35920	
3430	0	35824	
3431	0	35544	
3432	0	35112	
3433	0	34596	
3434	0	34108	
3435	0	33660	
3436	0	33272	
3437	0	32952	
3438	0	32740	
3439	0	32609	
3440	0	32484	
3441	0	32308	
3442	0	32080	
3443	0	31856	
3444	0	31716	
3445	0	31648	
3446	0	31656	
3447	0	31716	
3448	0	31784	
3449	0	31852	
3450	0	31872	
3451	0	31676	
3452	0	31260	
3453	0	30804	
3454	0	30384	
3455	0	30026	
3456	0	29752	
3457	0	29600	
3458	0	29516	
3459	0	29468	
3460	0	29460	
3461	0	29412	
3462	0	29264	
3463	0	29138	
3464	0	29096	
3465	0	29158	
3466	0	29300	
3467	0	29482	
3468	0	29712	
3469	0	29888	
3470	0	29944	
3471	0	29804	
3472	0	29520	
3473	0	29144	
3474	0	28816	
3475	0	28572	
3476	0	28392	
3477	0	28296	
3478	0	28264	
3479	0	28328	
3480	0	28438	
3481	0	28460	
3482	0	28398	
3483	0	28354	
3484	0	28442	
3485	0	28568	
3486	0	28744	
3487	0	28978	
3488	0	29220	
3489	0	29440	
3490	0	29612	
3491	0	29556	
3492	0	29312	
3493	0	29044	
3494	0	28800	
3495	0	28608	
3496	0	28500	
3497	0	28464	
3498	0	28488	
3499	0	28610	
3500	0	28784	
3501	0	28860	
3502	0	28848	
3503	0	28840	
3504	0	28884	
3505	0	29024	
3506	0	29236	
3507	0	29506	
3508	0	29738	
3509	0	29936	
3510	0	30112	
3511	0	30072	
3512	0	29836	
3513	0	29576	
3514	0	29348	
3515	0	29176	
3516	0	29053	
3517	0	29004	
3518	0	29028	
3519	0	29104	
3520	0	29228	
3521	0	29292	
3522	0	29288	
3523	0	29316	
3524	0	29374	
3525	0	29496	
3526	0	29656	
3527	0	29860	
3528	0	30064	
3529	0	30256	
3530	0	30408	
3531	0	30368	
3532	0	30184	
3533	0	29940	
3534	0	29694	
3535	0	29512	
3536	0	29372	
3537	0	29312	
3538	0	29384	
3539	0	29512	
3540	0	29632	
3541	0	29664	
3542	0	29656	
3543	0	29672	
3544	0	29708	
3545	0	29828	
3546	0	30044	
3547	0	30280	
3548	0	30536	
3549	0	30744	
3550	0	30920	
3551	0	30884	
3552	0	30688	
3553	0	30448	
3554	0	30224	
3555	0	30056	
3556	0	29984	
3557	0	29952	
3558	0	30000	
3559	0	30108	
3560	0	30260	
3561	0	30336	
3562	0	30277	
3563	0	30256	
3564	0	30290	
3565	0	30400	
3566	0	30592	
3567	0	30826	
3568	0	31096	
3569	0	31336	
3570	0	31492	
3571	0	31468	
3572	0	31238	
3573	0	30992	
3574	0	30776	
3575	0	30620	
3576	0	30540	
3577	0	30536	
3578	0	30572	
3579	0	30688	
3580	0	30812	
3581	0	30808	
3582	0	30712	
3583	0	30660	
3584	0	30704	
3585	0	30812	
3586	0	30992	
3587	0	31224	
3588	0	31484	
3589	0	31684	
3590	0	31776	
3591	0	31696	
3592	0	31436	
3593	0	31160	
3594	0	30956	
3595	0	30792	
3596	0	30720	
3597	0	30720	
3598	0	30744	
3599	0	30824	
3600	0	30924	
3601	0	30916	
3602	0	30868	
3603	0	30892	
3604	0	30980	
3605	0	31105	
3606	0	31320	
3607	0	31576	
3608	0	31808	
3609	0	32018	
3610	0	32156	
3611	0	32048	
3612	0	31736	
3613	0	31380	
3614	0	31096	
3615	0	30892	
3616	0	30804	
3617	0	30840	
3618	0	30888	
3619	0	31012	
3620	0	31140	
3621	0	31148	
3622	0	31108	
3623	0	31144	
3624	0	31208	
3625	0	31336	
3626	0	31546	
3627	0	31764	
3628	0	31980	
3629	0	32200	
3630	0	32352	
3631	0	32304	
3632	0	32072	
3633	0	31708	
3634	0	31440	
3635	0	31272	
3636	0	31188	
3637	0	31176	
3638	0	31232	
3639	0	31284	
3640	0	31352	
3641	0	31328	
3642	0	31264	
3643	0	31212	
3644	0	31268	
3645	0	31448	
3646	0	31656	
3647	0	31894	
3648	0	32096	
3649	0	32280	
3650	0	32384	
3651	0	32284	
3652	0	32016	
3653	0	31696	
3654	0	31474	
3655	0	31304	
3656	0	31192	
3657	0	31208	
3658	0	31264	
3659	0	31354	
3660	0	31457	
3661	0	31420	
3662	0	31376	
3663	0	31424	
3664	0	31530	
3665	0	31660	
3666	0	31856	
3667	0	32100	
3668	0	32304	
3669	0	32476	
3670	0	32556	
3671	0	32480	
3672	0	32236	
3673	0	31962	
3674	0	31732	
3675	0	31540	
3676	0	31456	
3677	0	31456	
3678	0	31528	
3679	0	31604	
3680	0	31712	
3681	0	31708	
3682	0	31652	
3683	0	31648	
3684	0	31724	
3685	0	31872	
3686	0	32116	
3687	0	32380	
3688	0	32584	
3689	0	32756	
3690	0	32816	
3691	0	32640	
3692	0	32380	
3693	0	32112	
3694	0	31868	
3695	0	31660	
3696	0	31464	
3697	0	31388	
3698	0	31420	
3699	0	31530	
3700	0	31652	
3701	0	31636	
3702	0	31560	
3703	0	31514	
3704	0	31608	
3705	0	31768	
3706	0	32016	
3707	0	32268	
3708	0	32484	
3709	0	32672	
3710	0	32828	
3711	0	32752	
3712	0	32516	
3713	0	32256	
3714	0	32040	
3715	0	31884	
3716	0	31786	
3717	0	31792	
3718	0	31866	
3719	0	31960	
3720	0	32044	
3721	0	32036	
3722	0	31940	
3723	0	31876	
3724	0	31930	
3725	0	32068	
3726	0	32258	
3727	0	32504	
3728	0	32728	
3729	0	32940	
3730	0	33048	
3731	0	32922	
3732	0	32644	
3733	0	32312	
3734	0	32046	
3735	0	31848	
3736	0	31760	
3737	0	31768	
3738	0	31828	
3739	0	31962	
3740	0	32076	
3741	0	32048	
3742	0	31968	
3743	0	31960	
3744	0	31976	
3745	0	32096	
3746	0	32324	
3747	0	32610	
3748	0	32860	
3749	0	33052	
3750	0	33160	
3751	0	33064	
3752	0	32784	
3753	0	32492	
3754	0	32276	
3755	0	32056	
3756	0	31888	
3757	0	31852	
3758	0	31908	
3759	0	32036	
3760	0	32108	
3761	0	32080	
3762	0	31976	
3763	0	31944	
3764	0	31988	
3765	0	32144	
3766	0	32356	
3767	0	32592	
3768	0	32848	
3769	0	33048	
3770	0	33120	
3771	0	32976	
3772	0	32744	
3773	0	32484	
3774	0	32268	
3775	0	32144	
3776	0	32068	
3777	0	32044	
3778	0	32092	
3779	0	32196	
3780	0	32280	
3781	0	32272	
3782	0	32216	
3783	0	32200	
3784	0	32256	
3785	0	32436	
3786	0	32652	
3787	0	32856	
3788	0	33100	
3789	0	33308	
3790	0	33364	
3791	0	33192	
3792	0	32904	
3793	0	32632	
3794	0	32396	
3795	0	32192	
3796	0	32084	
3797	0	32052	
3798	0	32084	
3799	0	32184	
3800	0	32280	
3801	0	32280	
3802	0	32264	
3803	0	32284	
3804	0	32372	
3805	0	32548	
3806	0	32748	
3807	0	32996	
3808	0	33264	
3809	0	33520	
3810	0	33624	
3811	0	33480	
3812	0	33178	
3813	0	32872	
3814	0	32648	
3815	0	32456	
3816	0	32372	
3817	0	32320	
3818	0	32380	
3819	0	32484	
3820	0	32604	
3821	0	32596	
3822	0	32520	
3823	0	32468	
3824	0	32512	
3825	0	32650	
3826	0	32846	
3827	0	33062	
3828	0	33248	
3829	0	33380	
3830	0	33432	
3831	0	33320	
3832	0	33056	
3833	0	32760	
3834	0	32506	
3835	0	32288	
3836	0	32176	
3837	0	32172	
3838	0	32204	
3839	0	32304	
3840	0	32408	
3841	0	32400	
3842	0	32376	
3843	0	32388	
3844	0	32424	
3845	0	32548	
3846	0	32716	
3847	0	32932	
3848	0	33168	
3849	0	33360	
3850	0	33436	
3851	0	33264	
3852	0	32978	
3853	0	32704	
3854	0	32472	
3855	0	32280	
3856	0	32148	
3857	0	32136	
3858	0	32212	
3859	0	32312	
3860	0	32402	
3861	0	32400	
3862	0	32344	
3863	0	32400	
3864	0	32516	
3865	0	32724	
3866	0	32968	
3867	0	33200	
3868	0	33444	
3869	0	33640	
3870	0	33652	
3871	0	33496	
3872	0	33276	
3873	0	33060	
3874	0	32812	
3875	0	32584	
3876	0	32472	
3877	0	32472	
3878	0	32528	
3879	0	32600	
3880	0	32632	
3881	0	32568	
3882	0	32500	
3883	0	32504	
3884	0	32592	
3885	0	32724	
3886	0	32936	
3887	0	33188	
3888	0	33428	
3889	0	33612	
3890	0	33656	
3891	0	33456	
3892	0	33204	
3893	0	32904	
3894	0	32652	
3895	0	32468	
3896	0	32328	
3897	0	32308	
3898	0	32341	
3899	0	32416	
3900	0	32492	
3901	0	32512	
3902	0	32508	
3903	0	32528	
3904	0	32608	
3905	0	32792	
3906	0	33048	
3907	0	33320	
3908	0	33568	
3909	0	33748	
3910	0	33796	
3911	0	33628	
3912	0	33352	
3913	0	33064	
3914	0	32832	
3915	0	32656	
3916	0	32572	
3917	0	32548	
3918	0	32592	
3919	0	32688	
3920	0	32768	
3921	0	32752	
3922	0	32720	
3923	0	32736	
3924	0	32800	
3925	0	32952	
3926	0	33210	
3927	0	33468	
3928	0	33696	
3929	0	33868	
3930	0	33894	
3931	0	33692	
3932	0	33400	
3933	0	33114	
3934	0	32908	
3935	0	32732	
3936	0	32624	
3937	0	32660	
3938	0	32760	
3939	0	32844	
3940	0	32896	
3941	0	32852	
3942	0	32780	
3943	0	32760	
3944	0	32828	
3945	0	32968	
3946	0	33240	
3947	0	33484	
3948	0	33656	
3949	0	33804	
3950	0	33808	
3951	0	33584	
3952	0	33320	
3953	0	33024	
3954	0	32808	
3955	0	32624	
3956	0	32496	
3957	0	32448	
3958	0	32496	
3959	0	32616	
3960	0	32672	
3961	0	32604	
3962	0	32516	
3963	0	32524	
3964	0	32640	
3965	0	32808	
3966	0	33026	
3967	0	33304	
3968	0	33596	
3969	0	33792	
3970	0	33788	
3971	0	33592	
3972	0	33240	
3973	0	32960	
3974	0	32824	
3975	0	32788	
3976	0	32816	
3977	0	32852	
3978	0	32916	
3979	0	33016	
3980	0	33064	
3981	0	32992	
3982	0	32872	
3983	0	32834	
3984	0	32928	
3985	0	33072	
3986	0	33272	
3987	0	33480	
3988	0	33656	
3989	0	33784	
3990	0	33816	
3991	0	33656	
3992	0	33372	
3993	0	33100	
3994	0	32904	
3995	0	32760	
3996	0	32676	
3997	0	32688	
3998	0	32748	
3999	0	32880	
4000	0	32932	
4001	0	32858	
4002	0	32792	
4003	0	32796	
4004	0	32868	
4005	0	32968	
4006	0	33152	
4007	0	33390	
4008	0	33604	
4009	0	33756	
4010	0	33764	
4011	0	33552	
4012	0	33288	
4013	0	33012	
4014	0	32800	
4015	0	32684	
4016	0	32668	
4017	0	32700	
4018	0	32808	
4019	0	32980	
4020	0	33156	
4021	0	33284	
4022	0	33396	
4023	0	33580	
4024	0	33812	
4025	0	34064	
4026	0	34352	
4027	0	34656	
4028	0	34920	
4029	0	35120	
4030	0	35144	
4031	0	34952	
4032	0	34720	
4033	0	34450	
4034	0	34220	
4035	0	34032	
4036	0	33900	
4037	0	33884	
4038	0	33960	
4039	0	34122	
4040	0	34208	
4041	0	34196	
4042	0	34168	
4043	0	34216	
4044	0	34312	
4045	0	34436	
4046	0	34636	
4047	0	34837	
4048	0	35040	
4049	0	35224	
4050	0	35178	
4051	0	34900	
4052	0	34524	
4053	0	34200	
4054	0	33900	
4055	0	33628	
4056	0	33444	
4057	0	33388	
4058	0	33400	
4059	0	33432	
4060	0	33416	
4061	0	33296	
4062	0	33180	
4063	0	33141	
4064	0	33192	
4065	0	33352	
4066	0	33520	
4067	0	33724	
4068	0	33920	
4069	0	34104	
4070	0	34114	
4071	0	33944	
4072	0	33700	
4073	0	33464	
4074	0	33284	
4075	0	33172	
4076	0	33094	
4077	0	33072	
4078	0	33108	
4079	0	33164	
4080	0	33208	
4081	0	33160	
4082	0	33100	
4083	0	33112	
4084	0	33216	
4085	0	33336	
4086	0	33496	
4087	0	33680	
4088	0	33864	
4089	0	34008	
4090	0	33960	
4091	0	33692	
4092	0	33345	
4093	0	33056	
4094	0	32848	
4095	0	32688	
4096	0	32636	
4097	0	32664	
4098	0	32680	
4099	0	32724	
4100	0	32704	
4101	0	32600	
4102	0	32504	
4103	0	32476	
4104	0	32496	
4105	0	32584	
4106	0	32728	
4107	0	32896	
4108	0	33042	
4109	0	33180	
4110	0	33136	
4111	0	32912	
4112	0	32584	
4113	0	32248	
4114	0	32040	
4115	0	31880	
4116	0	31792	
4117	0	31792	
4118	0	31868	
4119	0	32032	
4120	0	32116	
4121	0	32072	
4122	0	32016	
4123	0	32040	
4124	0	32144	
4125	0	32320	
4126	0	32592	
4127	0	32888	
4128	0	33102	
4129	0	33256	
4130	0	33192	
4131	0	32940	
4132	0	32648	
4133	0	32388	
4134	0	32192	
4135	0	32024	
4136	0	31984	
4137	0	32016	
4138	0	32112	
4139	0	32264	
4140	0	32314	
4141	0	32268	
4142	0	32248	
4143	0	32332	
4144	0	32480	
4145	0	32672	
4146	0	32876	
4147	0	33088	
4148	0	33240	
4149	0	33340	
4150	0	33280	
4151	0	33064	
4152	0	32724	
4153	0	32324	
4154	0	31996	
4155	0	31724	
4156	0	31500	
4157	0	31312	
4158	0	31180	
4159	0	31152	
4160	0	31108	
4161	0	31012	
4162	0	30920	
4163	0	30844	
4164	0	30744	
4165	0	30696	
4166	0	30856	
4167	0	31232	
4168	0	31744	
4169	0	32336	
4170	0	32876	
4171	0	33352	
4172	0	33944	
4173	0	34696	
4174	0	35596	
4175	0	36770	
4176	0	38064	
4177	0	39440	
4178	0	40908	
4179	0	42576	
4180	0	44380	
4181	0	46440	
4182	0	48892	
4183	0	51644	
4184	0	54416	
4185	0	57176	
4186	0	59668	
4187	0	61768	
4188	0	63296	
4189	0	64064	
4190	0	64440	
4191	0	64592	
4192	0	64616	
4193	0	64572	
4194	0	64496	
4195	0	64408	
4196	0	64288	
4197	0	64180	
4198	0	62776	
4199	0	58352	
4200	0	54240	
4201	0	50608	
4202	0	47532	
4203	0	44932	
4204	0	42672	
4205	0	40752	
4206	0	39156	
4207	0	37768	
4208	0	36712	
4209	0	35960	
4210	0	35268	
4211	0	34568	
4212	0	33832	
4213	0	33144	
4214	0	32500	
4215	0	31872	
4216	0	31348	
4217	0	30970	
4218	0	30720	
4219	0	30500	
4220	0	30252	
4221	0	29952	
4222	0	29696	
4223	0	29528	
4224	0	29424	
4225	0	29408	
4226	0	29461	
4227	0	29536	
4228	0	29656	
4229	0	29748	
4230	0	29648	
4231	0	29324	
4232	0	28956	
4233	0	28596	
4234	0	28280	
4235	0	28032	
4236	0	27916	
4237	0	27872	
4238	0	27904	
4239	0	28016	
4240	0	28074	
4241	0	28002	
4242	0	27960	
4243	0	27984	
4244	0	28060	
4245	0	28212	
4246	0	28392	
4247	0	28620	
4248	0	28840	
4249	0	29032	
4250	0	29048	
4251	0	28884	
4252	0	28576	
4253	0	28312	
4254	0	28104	
4255	0	27952	
4256	0	27856	
4257	0	27832	
4258	0	27928	
4259	0	28084	
4260	0	28192	
4261	0	28176	
4262	0	28133	
4263	0	28202	
4264	0	28326	
4265	0	28552	
4266	0	28840	
4267	0	29120	
4268	0	29404	
4269	0	29620	
4270	0	29632	
4271	0	29480	
4272	0	29248	
4273	0	29024	
4274	0	28832	
4275	0	28684	
4276	0	28648	
4277	0	28728	
4278	0	28896	
4279	0	29100	
4280	0	29180	
4281	0	29134	
4282	0	29112	
4283	0	29152	
4284	0	29288	
4285	0	29496	
4286	0	29752	
4287	0	30030	
4288	0	30256	
4289	0	30444	
4290	0	30418	
4291	0	30196	
4292	0	29896	
4293	0	29602	
4294	0	29384	
4295	0	29220	
4296	0	29156	
4297	0	29200	
4298	0	29328	
4299	0	29496	
4300	0	29556	
4301	0	29512	
4302	0	29480	
4303	0	29525	
4304	0	29688	
4305	0	29952	
4306	0	30276	
4307	0	30620	
4308	0	30956	
4309	0	31220	
4310	0	31192	
4311	0	30984	
4312	0	30728	
4313	0	30472	
4314	0	30262	
4315	0	30136	
4316	0	30084	
4317	0	30176	
4318	0	30360	
4319	0	30528	
4320	0	30556	
4321	0	30488	
4322	0	30444	
4323	0	30520	
4324	0	30732	
4325	0	30992	
4326	0	31264	
4327	0	31581	
4328	0	31884	
4329	0	32130	
4330	0	32112	
4331	0	31876	
4332	0	31520	
4333	0	31192	
4334	0	30940	
4335	0	30784	
4336	0	30752	
4337	0	30828	
4338	0	31012	
4339	0	31148	
4340	0	31164	
4341	0	31104	
4342	0	31108	
4343	0	31252	
4344	0	31470	
4345	0	31724	
4346	0	32028	
4347	0	32376	
4348	0	32660	
4349	0	32852	
4350	0	32800	
4351	0	32556	
4352	0	32208	
4353	0	31884	
4354	0	31612	
4355	0	31474	
4356	0	31432	
4357	0	31520	
4358	0	31732	
4359	0	31936	
4360	0	31972	
4361	0	31916	
4362	0	31904	
4363	0	31940	
4364	0	32100	
4365	0	32376	
4366	0	32728	
4367	0	33124	
4368	0	33504	
4369	0	33768	
4370	0	33756	
4371	0	33524	
4372	0	33208	
4373	0	32948	
4374	0	32756	
4375	0	32632	
4376	0	32628	
4377	0	32704	
4378	0	32872	
4379	0	33092	
4380	0	33188	
4381	0	33188	
4382	0	33216	
4383	0	33348	
4384	0	33556	
4385	0	33872	
4386	0	34264	
4387	0	34692	
4388	0	35064	
4389	0	35300	
4390	0	35272	
4391	0	35100	
4392	0	34848	
4393	0	34632	
4394	0	34528	
4395	0	34452	
4396	0	34458	
4397	0	34596	
4398	0	34824	
4399	0	35136	
4400	0	35324	
4401	0	35392	
4402	0	35520	
4403	0	35652	
4404	0	35856	
4405	0	36144	
4406	0	36560	
4407	0	37024	
4408	0	37456	
4409	0	37728	
4410	0	37736	
4411	0	37524	
4412	0	37224	
4413	0	36956	
4414	0	36760	
4415	0	36684	
4416	0	36728	
4417	0	36864	
4418	0	37092	
4419	0	37336	
4420	0	37416	
4421	0	37408	
4422	0	37368	
4423	0	37408	
4424	0	37610	
4425	0	37892	
4426	0	38256	
4427	0	38616	
4428	0	38904	
4429	0	39100	
4430	0	39016	
4431	0	38736	
4432	0	38436	
4433	0	38160	
4434	0	37956	
4435	0	37848	
4436	0	37876	
4437	0	37968	
4438	0	38132	
4439	0	38344	
4440	0	38368	
4441	0	38292	
4442	0	38224	
4443	0	38216	
4444	0	38328	
4445	0	38488	
4446	0	38668	
4447	0	38796	
4448	0	38956	
4449	0	39016	
4450	0	38800	
4451	0	38368	
4452	0	37856	
4453	0	37352	
4454	0	36948	
4455	0	36608	
4456	0	36344	
4457	0	36196	
4458	0	36156	
4459	0	36136	
4460	0	35980	
4461	0	35704	
4462	0	35492	
4463	0	35388	
4464	0	35356	
4465	0	35340	
4466	0	35332	
4467	0	35368	
4468	0	35400	
4469	0	35292	
4470	0	34920	
4471	0	34388	
4472	0	33798	
4473	0	33249	
4474	0	32768	
4475	0	32368	
4476	0	32056	
4477	0	31836	
4478	0	31752	
4479	0	31736	
4480	0	31596	
4481	0	31396	
4482	0	31244	
4483	0	31176	
4484	0	31218	
4485	0	31300	
4486	0	31438	
4487	0	31584	
4488	0	31722	
4489	0	31732	
4490	0	31412	
4491	0	30948	
4492	0	30496	
4493	0	30090	
4494	0	29720	
4495	0	29450	
4496	0	29284	
4497	0	29196	
4498	0	29224	
4499	0	29256	
4500	0	29152	
4501	0	28968	
4502	0	28812	
4503	0	28708	
4504	0	28684	
4505	0	28848	
4506	0	29088	
4507	0	29344	
4508	0	29592	
4509	0	29700	
4510	0	29508	
4511	0	29152	
4512	0	28776	
4513	0	28438	
4514	0	28176	
4515	0	27960	
4516	0	27856	
4517	0	27896	
4518	0	28012	
4519	0	28096	
4520	0	28026	
4521	0	27900	
4522	0	27836	
4523	0	27888	
4524	0	28060	
4525	0	28352	
4526	0	28684	
4527	0	29008	
4528	0	29296	
4529	0	29464	
4530	0	29316	
4531	0	29032	
4532	0	28692	
4533	0	28384	
4534	0	28164	
4535	0	28036	
4536	0	27964	
4537	0	27952	
4538	0	28044	
4539	0	28152	
4540	0	28120	
4541	0	27984	
4542	0	28000	
4543	0	28092	
4544	0	28256	
4545	0	28540	
4546	0	28888	
4547	0	29256	
4548	0	29564	
4549	0	29756	
4550	0	29684	
4551	0	29476	
4552	0	29196	
4553	0	28936	
4554	0	28728	
4555	0	28653	
4556	0	28664	
4557	0	28756	
4558	0	28940	
4559	0	29122	
4560	0	29120	
4561	0	29032	
4562	0	28992	
4563	0	29044	
4564	0	29156	
4565	0	29400	
4566	0	29696	
4567	0	29986	
4568	0	30220	
4569	0	30352	
4570	0	30140	
4571	0	29768	
4572	0	29364	
4573	0	29040	
4574	0	28800	
4575	0	28664	
4576	0	28684	
4577	0	28832	
4578	0	29076	
4579	0	29248	
4580	0	29272	
4581	0	29256	
4582	0	29292	
4583	0	29412	
4584	0	29616	
4585	0	29944	
4586	0	30340	
4587	0	30712	
4588	0	30984	
4589	0	31144	
4590	0	31052	
4591	0	30700	
4592	0	30292	
4593	0	29952	
4594	0	29696	
4595	0	29556	
4596	0	29552	
4597	0	29648	
4598	0	29856	
4599	0	30024	
4600	0	30040	
4601	0	29992	
4602	0	29980	
4603	0	30020	
4604	0	30144	
4605	0	30408	
4606	0	30776	
4607	0	31108	
4608	0	31388	
4609	0	31568	
4610	0	31440	
4611	0	31048	
4612	0	30626	
4613	0	30224	
4614	0	29890	
4615	0	29688	
4616	0	29664	
4617	0	29746	
4618	0	29928	
4619	0	30108	
4620	0	30096	
4621	0	30012	
4622	0	29968	
4623	0	30008	
4624	0	30164	
4625	0	30460	
4626	0	30788	
4627	0	31096	
4628	0	31436	
4629	0	31612	
4630	0	31492	
4631	0	31236	
4632	0	30916	
4633	0	30568	
4634	0	30364	
4635	0	30304	
4636	0	30356	
4637	0	30472	
4638	0	30656	
4639	0	30784	
4640	0	30762	
4641	0	30704	
4642	0	30716	
4643	0	30800	
4644	0	30956	
4645	0	31204	
4646	0	31544	
4647	0	31876	
4648	0	32128	
4649	0	32184	
4650	0	31968	
4651	0	31640	
4652	0	31248	
4653	0	30912	
4654	0	30624	
4655	0	30456	
4656	0	30384	
4657	0	30400	
4658	0	30540	
4659	0	30664	
4660	0	30612	
4661	0	30514	
4662	0	30520	
4663	0	30616	
4664	0	30756	
4665	0	31014	
4666	0	31332	
4667	0	31712	
4668	0	32076	
4669	0	32184	
4670	0	31940	
4671	0	31522	
4672	0	31092	
4673	0	30748	
4674	0	30512	
4675	0	30392	
4676	0	30400	
4677	0	30528	
4678	0	30752	
4679	0	30940	
4680	0	30928	
4681	0	30808	
4682	0	30748	
4683	0	30820	
4684	0	30994	
4685	0	31332	
4686	0	31668	
4687	0	31993	
4688	0	32264	
4689	0	32348	
4690	0	32132	
4691	0	31768	
4692	0	31348	
4693	0	31020	
4694	0	30776	
4695	0	30668	
4696	0	30684	
4697	0	30800	
4698	0	30972	
4699	0	31119	
4700	0	31080	
4701	0	30948	
4702	0	30912	
4703	0	30968	
4704	0	31136	
4705	0	31392	
4706	0	31672	
4707	0	31988	
4708	0	32270	
4709	0	32356	
4710	0	32200	
4711	0	31876	
4712	0	31592	
4713	0	31324	
4714	0	31104	
4715	0	30980	
4716	0	30924	
4717	0	30956	
4718	0	31120	
4719	0	31224	
4720	0	31164	
4721	0	31066	
4722	0	31040	
4723	0	31092	
4724	0	31244	
4725	0	31524	
4726	0	31864	
4727	0	32216	
4728	0	32584	
4729	0	32708	
4730	0	32556	
4731	0	32244	
4732	0	31892	
4733	0	31576	
4734	0	31284	
4735	0	31068	
4736	0	30972	
4737	0	31048	
4738	0	31228	
4739	0	31344	
4740	0	31340	
4741	0	31288	
4742	0	31320	
4743	0	31396	
4744	0	31560	
4745	0	31876	
4746	0	32232	
4747	0	32528	
4748	0	32784	
4749	0	32812	
4750	0	32500	
4751	0	32052	
4752	0	31600	
4753	0	31248	
4754	0	30968	
4755	0	30784	
4756	0	30752	
4757	0	30812	
4758	0	31000	
4759	0	31132	
4760	0	31164	
4761	0	31172	
4762	0	31288	
4763	0	31468	
4764	0	31728	
4765	0	31996	
4766	0	32284	
4767	0	32596	
4768	0	32896	
4769	0	32986	
4770	0	32792	
4771	0	32468	
4772	0	32104	
4773	0	31864	
4774	0	31628	
4775	0	31508	
4776	0	31476	
4777	0	31536	
4778	0	31696	
4779	0	31716	
4780	0	31612	
4781	0	31508	
4782	0	31504	
4783	0	31620	
4784	0	31824	
4785	0	32112	
4786	0	32412	
4787	0	32680	
4788	0	32960	
4789	0	33012	
4790	0	32800	
4791	0	32432	
4792	0	32080	
4793	0	31802	
4794	0	31632	
4795	0	31520	
4796	0	31492	
4797	0	31580	
4798	0	31740	
4799	0	31816	
4800	0	31780	
4801	0	31698	
4802	0	31672	
4803	0	31776	
4804	0	31968	
4805	0	32228	
4806	0	32564	
4807	0	32884	
4808	0	33168	
4809	0	33196	
4810	0	32896	
4811	0	32480	
4812	0	32056	
4813	0	31728	
4814	0	31464	
4815	0	31320	
4816	0	31296	
4817	0	31432	
4818	0	31656	
4819	0	31824	
4820	0	31808	
4821	0	31716	
4822	0	31756	
4823	0	31892	
4824	0	32120	
4825	0	32416	
4826	0	32720	
4827	0	32952	
4828	0	33180	
4829	0	33224	
4830	0	32986	
4831	0	32624	
4832	0	32240	
4833	0	31968	
4834	0	31776	
4835	0	31680	
4836	0	31620	
4837	0	31672	
4838	0	31832	
4839	0	31904	
4840	0	31808	
4841	0	31728	
4842	0	31808	
4843	0	31992	
4844	0	32244	
4845	0	32560	
4846	0	32922	
4847	0	33196	
4848	0	33441	
4849	0	33448	
4850	0	33136	
4851	0	32680	
4852	0	32260	
4853	0	31964	
4854	0	31760	
4855	0	31680	
4856	0	31696	
4857	0	31805	
4858	0	32016	
4859	0	32124	
4860	0	32064	
4861	0	31984	
4862	0	32020	
4863	0	32180	
4864	0	32452	
4865	0	32792	
4866	0	33124	
4867	0	33488	
4868	0	33792	
4869	0	33836	
4870	0	33584	
4871	0	33168	
4872	0	32736	
4873	0	32370	
4874	0	32024	
4875	0	31820	
4876	0	31768	
4877	0	31856	
4878	0	32084	
4879	0	32156	
4880	0	32084	
4881	0	31986	
4882	0	32024	
4883	0	32136	
4884	0	32332	
4885	0	32604	
4886	0	32880	
4887	0	33192	
4888	0	33480	
4889	0	33528	
4890	0	33280	
4891	0	32880	
4892	0	32476	
4893	0	32148	
4894	0	31904	
4895	0	31784	
4896	0	31728	
4897	0	31796	
4898	0	31980	
4899	0	32104	
4900	0	32040	
4901	0	31976	
4902	0	31984	
4903	0	32104	
4904	0	32328	
4905	0	32608	
4906	0	32922	
4907	0	33260	
4908	0	33556	
4909	0	33576	
4910	0	33304	
4911	0	32940	
4912	0	32604	
4913	0	32328	
4914	0	32066	
4915	0	31904	
4916	0	31836	
4917	0	31940	
4918	0	32112	
4919	0	32208	
4920	0	32196	
4921	0	32160	
4922	0	32220	
4923	0	32384	
4924	0	32652	
4925	0	33012	
4926	0	33396	
4927	0	33776	
4928	0	33996	
4929	0	33944	
4930	0	33676	
4931	0	33244	
4932	0	32832	
4933	0	32496	
4934	0	32228	
4935	0	32120	
4936	0	32124	
4937	0	32224	
4938	0	32416	
4939	0	32508	
4940	0	32456	
4941	0	32416	
4942	0	32440	
4943	0	32514	
4944	0	32684	
4945	0	32976	
4946	0	33304	
4947	0	33600	
4948	0	33812	
4949	0	33800	
4950	0	33504	
4951	0	33104	
4952	0	32752	
4953	0	32464	
4954	0	32240	
4955	0	32160	
4956	0	32204	
4957	0	32368	
4958	0	32552	
4959	0	32648	
4960	0	32560	
4961	0	32416	
4962	0	32436	
4963	0	32548	
4964	0	32752	
4965	0	32984	
4966	0	33256	
4967	0	33560	
4968	0	33840	
4969	0	33876	
4970	0	33628	
4971	0	33228	
4972	0	32800	
4973	0	32472	
4974	0	32256	
4975	0	32140	
4976	0	32128	
4977	0	32232	
4978	0	32460	
4979	0	32580	
4980	0	32540	
4981	0	32528	
4982	0	32640	
4983	0	32760	
4984	0	32916	
4985	0	33204	
4986	0	33504	
4987	0	33824	
4988	0	34112	
4989	0	34096	
4990	0	33768	
4991	0	33304	
4992	0	32904	
4993	0	32576	
4994	0	32328	
4995	0	32208	
4996	0	32184	
4997	0	32244	
4998	0	32384	
4999	0	32428	
5000	0	32376	
5001	0	32344	
5002	0	32448	
5003	0	32672	
5004	0	33000	
5005	0	33296	
5006	0	33552	
5007	0	33864	
5008	0	34132	
5009	0	34120	
5010	0	33828	
5011	0	33392	
5012	0	32936	
5013	0	32602	
5014	0	32344	
5015	0	32226	
5016	0	32248	
5017	0	32400	
5018	0	32536	
5019	0	32508	
5020	0	32352	
5021	0	32240	
5022	0	32212	
5023	0	32286	
5024	0	32484	
5025	0	32856	
5026	0	33296	
5027	0	33684	
5028	0	34056	
5029	0	34120	
5030	0	33860	
5031	0	33456	
5032	0	33112	
5033	0	32912	
5034	0	32808	
5035	0	32844	
5036	0	32942	
5037	0	33136	
5038	0	33336	
5039	0	33412	
5040	0	33340	
5041	0	33368	
5042	0	33492	
5043	0	33676	
5044	0	33996	
5045	0	34400	
5046	0	34784	
5047	0	35112	
5048	0	35368	
5049	0	35312	
5050	0	34996	
5051	0	34552	
5052	0	34176	
5053	0	33908	
5054	0	33740	
5055	0	33676	
5056	0	33688	
5057	0	33832	
5058	0	34056	
5059	0	34144	
5060	0	34120	
5061	0	34032	
5062	0	33968	
5063	0	34024	
5064	0	34136	
5065	0	34360	
5066	0	34624	
5067	0	34904	
5068	0	35088	
5069	0	34948	
5070	0	34524	
5071	0	34030	
5072	0	33530	
5073	0	33092	
5074	0	32712	
5075	0	32552	
5076	0	32584	
5077	0	32708	
5078	0	32892	
5079	0	32936	
5080	0	32856	
5081	0	32800	
5082	0	32842	
5083	0	32944	
5084	0	33174	
5085	0	33480	
5086	0	33756	
5087	0	34068	
5088	0	34392	
5089	0	34386	
5090	0	34148	
5091	0	33784	
5092	0	33428	
5093	0	33124	
5094	0	32868	
5095	0	32752	
5096	0	32704	
5097	0	32808	
5098	0	32988	
5099	0	33040	
5100	0	32952	
5101	0	32944	
5102	0	33028	
5103	0	33168	
5104	0	33432	
5105	0	33736	
5106	0	34012	
5107	0	34272	
5108	0	34408	
5109	0	34232	
5110	0	33874	
5111	0	33358	
5112	0	32876	
5113	0	32448	
5114	0	32140	
5115	0	32000	
5116	0	32008	
5117	0	32088	
5118	0	32272	
5119	0	32240	
5120	0	32052	
5121	0	31896	
5122	0	31824	
5123	0	31836	
5124	0	31960	
5125	0	32156	
5126	0	32416	
5127	0	32656	
5128	0	32864	
5129	0	32848	
5130	0	32628	
5131	0	32280	
5132	0	31912	
5133	0	31608	
5134	0	31376	
5135	0	31332	
5136	0	31352	
5137	0	31484	
5138	0	31660	
5139	0	31664	
5140	0	31520	
5141	0	31394	
5142	0	31432	
5143	0	31584	
5144	0	31852	
5145	0	32224	
5146	0	32608	
5147	0	32984	
5148	0	33240	
5149	0	33210	
5150	0	32956	
5151	0	32604	
5152	0	32268	
5153	0	32004	
5154	0	31836	
5155	0	31752	
5156	0	31720	
5157	0	31828	
5158	0	32018	
5159	0	32072	
5160	0	31976	
5161	0	31912	
5162	0	31952	
5163	0	32076	
5164	0	32312	
5165	0	32648	
5166	0	32940	
5167	0	33276	
5168	0	33524	
5169	0	33444	
5170	0	33060	
5171	0	32504	
5172	0	32036	
5173	0	31576	
5174	0	31148	
5175	0	30912	
5176	0	30824	
5177	0	30812	
5178	0	30768	
5179	0	30586	
5180	0	30298	
5181	0	30000	
5182	0	29844	
5183	0	30000	
5184	0	30400	
5185	0	31036	
5186	0	31836	
5187	0	32836	
5188	0	33836	
5189	0	34684	
5190	0	35448	
5191	0	36292	
5192	0	37412	
5193	0	38648	
5194	0	40064	
5195	0	41576	
5196	0	43252	
5197	0	45248	
5198	0	47560	
5199	0	50132	
5200	0	52720	
5201	0	55368	
5202	0	57928	
5203	0	60304	
5204	0	62248	
5205	0	63760	
5206	0	64608	
5207	0	65024	
5208	0	65176	
5209	0	65208	
5210	0	65168	
5211	0	65080	
5212	0	64996	
5213	0	64832	
5214	0	61064	
5215	0	57304	
5216	0	53388	
5217	0	49908	
5218	0	46932	
5219	0	44176	
5220	0	41552	
5221	0	39312	
5222	0	37528	
5223	0	36020	
5224	0	34920	
5225	0	34242	
5226	0	33962	
5227	0	33884	
5228	0	33788	
5229	0	33440	
5230	0	32876	
5231	0	32192	
5232	0	31576	
5233	0	31040	
5234	0	30640	
5235	0	30386	
5236	0	30234	
5237	0	30152	
5238	0	30136	
5239	0	30016	
5240	0	29780	
5241	0	29604	
5242	0	29504	
5243	0	29504	
5244	0	29624	
5245	0	29764	
5246	0	29932	
5247	0	30120	
5248	0	30180	
5249	0	29968	
5250	0	29528	
5251	0	29076	
5252	0	28698	
5253	0	28336	
5254	0	28096	
5255	0	27996	
5256	0	28012	
5257	0	28176	
5258	0	28332	
5259	0	28360	
5260	0	28328	
5261	0	28344	
5262	0	28416	
5263	0	28578	
5264	0	28800	
5265	0	29060	
5266	0	29288	
5267	0	29508	
5268	0	29652	
5269	0	29484	
5270	0	29084	
5271	0	28640	
5272	0	28264	
5273	0	28012	
5274	0	27904	
5275	0	27896	
5276	0	27956	
5277	0	28144	
5278	0	28332	
5279	0	28368	
5280	0	28304	
5281	0	28284	
5282	0	28408	
5283	0	28640	
5284	0	28968	
5285	0	29332	
5286	0	29640	
5287	0	29928	
5288	0	30120	
5289	0	30020	
5290	0	29786	
5291	0	29500	
5292	0	29288	
5293	0	29160	
5294	0	29104	
5295	0	29116	
5296	0	29204	
5297	0	29410	
5298	0	29626	
5299	0	29612	
5300	0	29460	
5301	0	29376	
5302	0	29404	
5303	0	29548	
5304	0	29808	
5305	0	30096	
5306	0	30464	
5307	0	30792	
5308	0	30976	
5309	0	30848	
5310	0	30522	
5311	0	30168	
5312	0	29816	
5313	0	29536	
5314	0	29392	
5315	0	29436	
5316	0	29576	
5317	0	29808	
5318	0	30044	
5319	0	30146	
5320	0	30092	
5321	0	30066	
5322	0	30116	
5323	0	30300	
5324	0	30636	
5325	0	31024	
5326	0	31392	
5327	0	31736	
5328	0	31956	
5329	0	31872	
5330	0	31536	
5331	0	31200	
5332	0	30900	
5333	0	30688	
5334	0	30560	
5335	0	30552	
5336	0	30632	
5337	0	30788	
5338	0	30944	
5339	0	30900	
5340	0	30772	
5341	0	30645	
5342	0	30696	
5343	0	30896	
5344	0	31208	
5345	0	31536	
5346	0	31828	
5347	0	32152	
5348	0	32316	
5349	0	32112	
5350	0	31744	
5351	0	31352	
5352	0	31032	
5353	0	30800	
5354	0	30672	
5355	0	30644	
5356	0	30728	
5357	0	30908	
5358	0	31124	
5359	0	31200	
5360	0	31228	
5361	0	31320	
5362	0	31496	
5363	0	31756	
5364	0	32112	
5365	0	32504	
5366	0	32852	
5367	0	33172	
5368	0	33320	
5369	0	33136	
5370	0	32828	
5371	0	32484	
5372	0	32224	
5373	0	32004	
5374	0	31852	
5375	0	31840	
5376	0	31976	
5377	0	32226	
5378	0	32428	
5379	0	32408	
5380	0	32320	
5381	0	32336	
5382	0	32492	
5383	0	32664	
5384	0	32888	
5385	0	33192	
5386	0	33532	
5387	0	33896	
5388	0	34072	
5389	0	33956	
5390	0	33664	
5391	0	33320	
5392	0	33124	
5393	0	33048	
5394	0	33112	
5395	0	33296	
5396	0	33582	
5397	0	33914	
5398	0	34176	
5399	0	34228	
5400	0	34224	
5401	0	34258	
5402	0	34364	
5403	0	34584	
5404	0	34936	
5405	0	35320	
5406	0	35712	
5407	0	36104	
5408	0	36364	
5409	0	36264	
5410	0	36032	
5411	0	35704	
5412	0	35354	
5413	0	35148	
5414	0	35028	
5415	0	35028	
5416	0	35188	
5417	0	35480	
5418	0	35712	
5419	0	35756	
5420	0	35792	
5421	0	35876	
5422	0	36084	
5423	0	36404	
5424	0	36796	
5425	0	37196	
5426	0	37632	
5427	0	38056	
5428	0	38268	
5429	0	38144	
5430	0	37884	
5431	0	37576	
5432	0	37272	
5433	0	37068	
5434	0	37004	
5435	0	37048	
5436	0	37172	
5437	0	37364	
5438	0	37560	
5439	0	37584	
5440	0	37580	
5441	0	37592	
5442	0	37736	
5443	0	37992	
5444	0	38324	
5445	0	38684	
5446	0	38996	
5447	0	39288	
5448	0	39396	
5449	0	39224	
5450	0	38916	
5451	0	38520	
5452	0	38136	
5453	0	37824	
5454	0	37676	
5455	0	37592	
5456	0	37616	
5457	0	37792	
5458	0	37852	
5459	0	37728	
5460	0	37592	
5461	0	37536	
5462	0	37576	
5463	0	37744	
5464	0	38016	
5465	0	38304	
5466	0	38560	
5467	0	38756	
5468	0	38712	
5469	0	38372	
5470	0	37860	
5471	0	37304	
5472	0	36852	
5473	0	36484	
5474	0	36204	
5475	0	35992	
5476	0	35840	
5477	0	35772	
5478	0	35656	
5479	0	35424	
5480	0	35168	
5481	0	34992	
5482	0	34924	
5483	0	34936	
5484	0	35028	
5485	0	35144	
5486	0	35216	
5487	0	35312	
5488	0	35144	
5489	0	34716	
5490	0	34168	
5491	0	33620	
5492	0	33128	
5493	0	32666	
5494	0	32280	
5495	0	32044	
5496	0	31912	
5497	0	31892	
5498	0	31804	
5499	0	31556	
5500	0	31288	
5501	0	31096	
5502	0	31064	
5503	0	31100	
5504	0	31202	
5505	0	31340	
5506	0	31460	
5507	0	31504	
5508	0	31380	
5509	0	30964	
5510	0	30464	
5511	0	30020	
5512	0	29594	
5513	0	29236	
5514	0	28976	
5515	0	28858	
5516	0	28904	
5517	0	29080	
5518	0	29188	
5519	0	29172	
5520	0	29048	
5521	0	28976	
5522	0	29040	
5523	0	29218	
5524	0	29452	
5525	0	29728	
5526	0	30012	
5527	0	30244	
5528	0	30260	
5529	0	29972	
5530	0	29520	
5531	0	29036	
5532	0	28656	
5533	0	28384	
5534	0	28224	
5535	0	28172	
5536	0	28224	
5537	0	28356	
5538	0	28436	
5539	0	28360	
5540	0	28252	
5541	0	28244	
5542	0	28312	
5543	0	28524	
5544	0	28802	
5545	0	29070	
5546	0	29352	
5547	0	29612	
5548	0	29676	
5549	0	29472	
5550	0	29108	
5551	0	28756	
5552	0	28524	
5553	0	28416	
5554	0	28354	
5555	0	28356	
5556	0	28486	
5557	0	28692	
5558	0	28785	
5559	0	28736	
5560	0	28668	
5561	0	28696	
5562	0	28804	
5563	0	28984	
5564	0	29260	
5565	0	29548	
5566	0	29864	
5567	0	30104	
5568	0	30104	
5569	0	29828	
5570	0	29440	
5571	0	29128	
5572	0	28876	
5573	0	28700	
5574	0	28596	
5575	0	28632	
5576	0	28776	
5577	0	28996	
5578	0	29088	
5579	0	29044	
5580	0	29048	
5581	0	29168	
5582	0	29384	
5583	0	29664	
5584	0	29986	
5585	0	30292	
5586	0	30612	
5587	0	30940	
5588	0	31024	
5589	0	30804	
5590	0	30456	
5591	0	30092	
5592	0	29784	
5593	0	29544	
5594	0	29412	
5595	0	29388	
5596	0	29512	
5597	0	29697	
5598	0	29800	
5599	0	29768	
5600	0	29724	
5601	0	29776	
5602	0	29904	
5603	0	30100	
5604	0	30380	
5605	0	30712	
5606	0	31036	
5607	0	31357	
5608	0	31482	
5609	0	31308	
5610	0	30992	
5611	0	30680	
5612	0	30408	
5613	0	30200	
5614	0	30096	
5615	0	30130	
5616	0	30276	
5617	0	30524	
5618	0	30640	
5619	0	30608	
5620	0	30492	
5621	0	30518	
5622	0	30612	
5623	0	30796	
5624	0	31068	
5625	0	31388	
5626	0	31696	
5627	0	31952	
5628	0	31956	
5629	0	31672	
5630	0	31248	
5631	0	30820	
5632	0	30516	
5633	0	30268	
5634	0	30144	
5635	0	30156	
5636	0	30288	
5637	0	30466	
5638	0	30580	
5639	0	30572	
5640	0	30505	
5641	0	30528	
5642	0	30616	
5643	0	30800	
5644	0	31068	
5645	0	31352	
5646	0	31664	
5647	0	31908	
5648	0	31908	
5649	0	31700	
5650	0	31356	
5651	0	31008	
5652	0	30732	
5653	0	30476	
5654	0	30336	
5655	0	30312	
5656	0	30400	
5657	0	30576	
5658	0	30664	
5659	0	30600	
5660	0	30576	
5661	0	30666	
5662	0	30848	
5663	0	31077	
5664	0	31356	
5665	0	31666	
5666	0	31976	
5667	0	32260	
5668	0	32308	
5669	0	32152	
5670	0	31928	
5671	0	31632	
5672	0	31344	
5673	0	31112	
5674	0	30984	
5675	0	30980	
5676	0	31104	
5677	0	31300	
5678	0	31340	
5679	0	31248	
5680	0	31136	
5681	0	31132	
5682	0	31256	
5683	0	31396	
5684	0	31628	
5685	0	31916	
5686	0	32180	
5687	0	32400	
5688	0	32360	
5689	0	32077	
5690	0	31744	
5691	0	31400	
5692	0	31088	
5693	0	30868	
5694	0	30780	
5695	0	30828	
5696	0	30992	
5697	0	31172	
5698	0	31224	
5699	0	31136	
5700	0	31092	
5701	0	31184	
5702	0	31328	
5703	0	31544	
5704	0	31772	
5705	0	32056	
5706	0	32332	
5707	0	32560	
5708	0	32488	
5709	0	32104	
5710	0	31672	
5711	0	31308	
5712	0	31056	
5713	0	30924	
5714	0	30856	
5715	0	30868	
5716	0	31002	
5717	0	31220	
5718	0	31332	
5719	0	31274	
5720	0	31252	
5721	0	31320	
5722	0	31412	
5723	0	31600	
5724	0	31840	
5725	0	32090	
5726	0	32352	
5727	0	32572	
5728	0	32568	
5729	0	32304	
5730	0	31916	
5731	0	31544	
5732	0	31236	
5733	0	31060	
5734	0	31040	
5735	0	31120	
5736	0	31276	
5737	0	31488	
5738	0	31584	
5739	0	31532	
5740	0	31456	
5741	0	31428	
5742	0	31480	
5743	0	31621	
5744	0	31896	
5745	0	32216	
5746	0	32544	
5747	0	32800	
5748	0	32796	
5749	0	32532	
5750	0	32144	
5751	0	31784	
5752	0	31548	
5753	0	31360	
5754	0	31320	
5755	0	31368	
5756	0	31512	
5757	0	31692	
5758	0	31722	
5759	0	31658	
5760	0	31592	
5761	0	31576	
5762	0	31676	
5763	0	31896	
5764	0	32168	
5765	0	32464	
5766	0	32788	
5767	0	33056	
5768	0	33028	
5769	0	32740	
5770	0	32336	
5771	0	31996	
5772	0	31724	
5773	0	31516	
5774	0	31392	
5775	0	31418	
5776	0	31544	
5777	0	31760	
5778	0	31861	
5779	0	31816	
5780	0	31812	
5781	0	31852	
5782	0	31968	
5783	0	32192	
5784	0	32476	
5785	0	32732	
5786	0	33016	
5787	0	33192	
5788	0	33080	
5789	0	32740	
5790	0	32336	
5791	0	31960	
5792	0	31656	
5793	0	31444	
5794	0	31400	
5795	0	31436	
5796	0	31508	
5797	0	31656	
5798	0	31704	
5799	0	31660	
5800	0	31592	
5801	0	31668	
5802	0	31880	
5803	0	32212	
5804	0	32560	
5805	0	32984	
5806	0	33340	
5807	0	33544	
5808	0	33468	
5809	0	33120	
5810	0	32688	
5811	0	32336	
5812	0	32100	
5813	0	31936	
5814	0	31876	
5815	0	31916	
5816	0	32040	
5817	0	32172	
5818	0	32188	
5819	0	32072	
5820	0	32000	
5821	0	32049	
5822	0	32220	
5823	0	32460	
5824	0	32712	
5825	0	33018	
5826	0	33336	
5827	0	33560	
5828	0	33488	
5829	0	33164	
5830	0	32760	
5831	0	32424	
5832	0	32136	
5833	0	31908	
5834	0	31812	
5835	0	31840	
5836	0	31952	
5837	0	32136	
5838	0	32140	
5839	0	32024	
5840	0	31960	
5841	0	31994	
5842	0	32140	
5843	0	32364	
5844	0	32680	
5845	0	33008	
5846	0	33324	
5847	0	33584	
5848	0	33520	
5849	0	33216	
5850	0	32912	
5851	0	32624	
5852	0	32338	
5853	0	32068	
5854	0	31920	
5855	0	31872	
5856	0	31908	
5857	0	32008	
5858	0	32088	
5859	0	32056	
5860	0	32040	
5861	0	32096	
5862	0	32264	
5863	0	32520	
5864	0	32832	
5865	0	33200	
5866	0	33496	
5867	0	33712	
5868	0	33652	
5869	0	33328	
5870	0	32944	
5871	0	32612	
5872	0	32312	
5873	0	32120	
5874	0	32064	
5875	0	32144	
5876	0	32320	
5877	0	32536	
5878	0	32560	
5879	0	32476	
5880	0	32408	
5881	0	32420	
5882	0	32536	
5883	0	32740	
5884	0	33036	
5885	0	33364	
5886	0	33636	
5887	0	33824	
5888	0	33752	
5889	0	33432	
5890	0	32996	
5891	0	32564	
5892	0	32248	
5893	0	32068	
5894	0	32032	
5895	0	32088	
5896	0	32216	
5897	0	32388	
5898	0	32420	
5899	0	32328	
5900	0	32248	
5901	0	32264	
5902	0	32416	
5903	0	32696	
5904	0	33056	
5905	0	33416	
5906	0	33738	
5907	0	33960	
5908	0	33864	
5909	0	33520	
5910	0	33128	
5911	0	32732	
5912	0	32384	
5913	0	32168	
5914	0	32084	
5915	0	32048	
5916	0	32122	
5917	0	32280	
5918	0	32304	
5919	0	32248	
5920	0	32232	
5921	0	32344	
5922	0	32530	
5923	0	32776	
5924	0	33076	
5925	0	33428	
5926	0	33770	
5927	0	34016	
5928	0	33936	
5929	0	33624	
5930	0	33272	
5931	0	32912	
5932	0	32592	
5933	0	32332	
5934	0	32244	
5935	0	32278	
5936	0	32392	
5937	0	32528	
5938	0	32516	
5939	0	32424	
5940	0	32417	
5941	0	32496	
5942	0	32688	
5943	0	32912	
5944	0	33232	
5945	0	33602	
5946	0	33904	
5947	0	34080	
5948	0	33932	
5949	0	33588	
5950	0	33212	
5951	0	32916	
5952	0	32628	
5953	0	32432	
5954	0	32324	
5955	0	32304	
5956	0	32424	
5957	0	32592	
5958	0	32630	
5959	0	32544	
5960	0	32508	
5961	0	32512	
5962	0	32596	
5963	0	32764	
5964	0	32992	
5965	0	33264	
5966	0	33532	
5967	0	33720	
5968	0	33644	
5969	0	33364	
5970	0	33048	
5971	0	32778	
5972	0	32620	
5973	0	32544	
5974	0	32596	
5975	0	32692	
5976	0	32820	
5977	0	32980	
5978	0	33008	
5979	0	32952	
5980	0	32900	
5981	0	32924	
5982	0	33068	
5983	0	33308	
5984	0	33584	
5985	0	33820	
5986	0	34056	
5987	0	34192	
5988	0	34076	
5989	0	33709	
5990	0	33280	
5991	0	32920	
5992	0	32634	
5993	0	32448	
5994	0	32428	
5995	0	32472	
5996	0	32588	
5997	0	32744	
5998	0	32840	
5999	0	32808	
6000	0	32796	
6001	0	32860	
6002	0	32936	
6003	0	33120	
6004	0	33352	
6005	0	33592	
6006	0	33856	
6007	0	34108	
6008	0	34068	
6009	0	33772	
6010	0	33368	
6011	0	33002	
6012	0	32704	
6013	0	32506	
6014	0	32464	
6015	0	32568	
6016	0	32744	
6017	0	32968	
6018	0	33016	
6019	0	32956	
6020	0	32896	
6021	0	32888	
6022	0	32984	
6023	0	33184	
6024	0	33456	
6025	0	33748	
6026	0	34036	
6027	0	34264	
6028	0	34160	
6029	0	33808	
6030	0	33364	
6031	0	32964	
6032	0	32632	
6033	0	32472	
6034	0	32428	
6035	0	32440	
6036	0	32552	
6037	0	32736	
6038	0	32772	
6039	0	32700	
6040	0	32628	
6041	0	32656	
6042	0	32792	
6043	0	33024	
6044	0	33298	
6045	0	33576	
6046	0	33860	
6047	0	34024	
6048	0	33912	
6049	0	33636	
6050	0	33304	
6051	0	32956	
6052	0	32740	
6053	0	32640	
6054	0	32612	
6055	0	32648	
6056	0	32736	
6057	0	32872	
6058	0	32890	
6059	0	32856	
6060	0	32904	
6061	0	33064	
6062	0	33356	
6063	0	33704	
6064	0	34128	
6065	0	34552	
6066	0	34968	
6067	0	35248	
6068	0	35268	
6069	0	35000	
6070	0	34680	
6071	0	34364	
6072	0	34084	
6073	0	33820	
6074	0	33680	
6075	0	33708	
6076	0	33880	
6077	0	34080	
6078	0	34128	
6079	0	34060	
6080	0	34008	
6081	0	34064	
6082	0	34212	
6083	0	34464	
6084	0	34792	
6085	0	35136	
6086	0	35396	
6087	0	35584	
6088	0	35496	
6089	0	35152	
6090	0	34658	
6091	0	34200	
6092	0	33840	
6093	0	33584	
6094	0	33436	
6095	0	33388	
6096	0	33400	
6097	0	33448	
6098	0	33444	
6099	0	33368	
6100	0	33300	
6101	0	33272	
6102	0	33320	
6103	0	33520	
6104	0	33790	
6105	0	34040	
6106	0	34276	
6107	0	34416	
6108	0	34280	
6109	0	33952	
6110	0	33564	
6111	0	33228	
6112	0	32960	
6113	0	32800	
6114	0	32804	
6115	0	32936	
6116	0	33124	
6117	0	33320	
6118	0	33324	
6119	0	33218	
6120	0	33160	
6121	0	33168	
6122	0	33224	
6123	0	33380	
6124	0	33656	
6125	0	34052	
6126	0	34408	
6127	0	34656	
6128	0	34640	
6129	0	34376	
6130	0	33978	
6131	0	33656	
6132	0	33352	
6133	0	33044	
6134	0	32844	
6135	0	32712	
6136	0	32696	
6137	0	32782	
6138	0	32772	
6139	0	32672	
6140	0	32592	
6141	0	32576	
6142	0	32620	
6143	0	32776	
6144	0	33000	
6145	0	33268	
6146	0	33564	
6147	0	33780	
6148	0	33676	
6149	0	33289	
6150	0	32824	
6151	0	32472	
6152	0	32184	
6153	0	31960	
6154	0	31870	
6155	0	31884	
6156	0	31988	
6157	0	32156	
6158	0	32208	
6159	0	32092	
6160	0	32024	
6161	0	32080	
6162	0	32228	
6163	0	32424	
6164	0	32696	
6165	0	33037	
6166	0	33376	
6167	0	33632	
6168	0	33568	
6169	0	33208	
6170	0	32836	
6171	0	32500	
6172	0	32208	
6173	0	32004	
6174	0	31888	
6175	0	31896	
6176	0	32044	
6177	0	32228	
6178	0	32284	
6179	0	32184	
6180	0	32120	
6181	0	32128	
6182	0	32248	
6183	0	32480	
6184	0	32768	
6185	0	33082	
6186	0	33388	
6187	0	33560	
6188	0	33460	
6189	0	33108	
6190	0	32650	
6191	0	32272	
6192	0	32032	
6193	0	31904	
6194	0	31788	
6195	0	31706	
6196	0	31716	
6197	0	31728	
6198	0	31596	
6199	0	31340	
6200	0	31084	
6201	0	30968	
6202	0	31024	
6203	0	31156	
6204	0	31332	
6205	0	31492	
6206	0	31616	
6207	0	31664	
6208	0	31692	
6209	0	31670	
6210	0	31724	
6211	0	31904	
6212	0	32296	
6213	0	32956	
6214	0	33856	
6215	0	35000	
6216	0	36392	
6217	0	37916	
6218	0	39352	
6219	0	40776	
6220	0	42292	
6221	0	44020	
6222	0	46072	
6223	0	48640	
6224	0	51600	
6225	0	54632	
6226	0	57588	
6227	0	60320	
6228	0	62408	
6229	0	63792	
6230	0	64568	
6231	0	64900	
6232	0	65040	
6233	0	65056	
6234	0	65008	
6235	0	64940	
6236	0	64832	
6237	0	64728	
6238	0	64616	
6239	0	64488	
6240	0	60044	
6241	0	55648	
6242	0	51828	
6243	0	48708	
6244	0	46112	
6245	0	43848	
6246	0	41944	
6247	0	40240	
6248	0	38480	
6249	0	36804	
6250	0	35428	
6251	0	34332	
6252	0	33500	
6253	0	32832	
6254	0	32332	
6255	0	31968	
6256	0	31668	
6257	0	31420	
6258	0	31068	
6259	0	30636	
6260	0	30244	
6261	0	29996	
6262	0	29940	
6263	0	30040	
6264	0	30168	
6265	0	30320	
6266	0	30440	
6267	0	30456	
6268	0	30200	
6269	0	29792	
6270	0	29360	
6271	0	28952	
6272	0	28624	
6273	0	28360	
6274	0	28216	
6275	0	28156	
6276	0	28192	
6277	0	28284	
6278	0	28260	
6279	0	28120	
6280	0	28036	
6281	0	28024	
6282	0	28108	
6283	0	28288	
6284	0	28632	
6285	0	28920	
6286	0	29152	
6287	0	29288	
6288	0	29202	
6289	0	28952	
6290	0	28620	
6291	0	28288	
6292	0	28040	
6293	0	27880	
6294	0	27800	
6295	0	27888	
6296	0	28054	
6297	0	28200	
6298	0	28216	
6299	0	28128	
6300	0	28140	
6301	0	28240	
6302	0	28404	
6303	0	28696	
6304	0	29008	
6305	0	29304	
6306	0	29593	
6307	0	29812	
6308	0	29720	
6309	0	29408	
6310	0	29048	
6311	0	28704	
6312	0	28460	
6313	0	28328	
6314	0	28332	
6315	0	28402	
6316	0	28568	
6317	0	28760	
6318	0	28800	
6319	0	28738	
6320	0	28772	
6321	0	28880	
6322	0	29036	
6323	0	29288	
6324	0	29588	
6325	0	29924	
6326	0	30264	
6327	0	30468	
6328	0	30352	
6329	0	30036	
6330	0	29680	
6331	0	29340	
6332	0	29080	
6333	0	28900	
6334	0	28865	
6335	0	28924	
6336	0	29056	
6337	0	29268	
6338	0	29308	
6339	0	29236	
6340	0	29213	
6341	0	29328	
6342	0	29588	
6343	0	29920	
6344	0	30244	
6345	0	30568	
6346	0	30824	
6347	0	30972	
6348	0	30840	
6349	0	30568	
6350	0	30268	
6351	0	29980	
6352	0	29752	
6353	0	29642	
6354	0	29652	
6355	0	29772	
6356	0	29956	
6357	0	30200	
6358	0	30280	
6359	0	30212	
6360	0	30160	
6361	0	30216	
6362	0	30352	
6363	0	30608	
6364	0	30956	
6365	0	31276	
6366	0	31532	
6367	0	31672	
6368	0	31520	
6369	0	31182	
6370	0	30776	
6371	0	30404	
6372	0	30160	
6373	0	30044	
6374	0	30044	
6375	0	30156	
6376	0	30381	
6377	0	30620	
6378	0	30664	
6379	0	30628	
6380	0	30616	
6381	0	30692	
6382	0	30904	
6383	0	31176	
6384	0	31514	
6385	0	31864	
6386	0	32184	
6387	0	32376	
6388	0	32240	
6389	0	31944	
6390	0	31588	
6391	0	31308	
6392	0	31050	
6393	0	30896	
6394	0	30880	
6395	0	30964	
6396	0	31164	
6397	0	31392	
6398	0	31492	
6399	0	31472	
6400	0	31504	
6401	0	31620	
6402	0	31832	
6403	0	32100	
6404	0	32488	
6405	0	32864	
6406	0	33224	
6407	0	33464	
6408	0	33380	
6409	0	33116	
6410	0	32820	
6411	0	32580	
6412	0	32420	
6413	0	32324	
6414	0	32320	
6415	0	32396	
6416	0	32584	
6417	0	32776	
6418	0	32802	
6419	0	32736	
6420	0	32764	
6421	0	32928	
6422	0	33192	
6423	0	33492	
6424	0	33808	
6425	0	34132	
6426	0	34448	
6427	0	34604	
6428	0	34532	
6429	0	34356	
6430	0	34084	
6431	0	33840	
6432	0	33712	
6433	0	33680	
6434	0	33744	
6435	0	33878	
6436	0	34072	
6437	0	34236	
6438	0	34332	
6439	0	34404	
6440	0	34528	
6441	0	34728	
6442	0	35044	
6443	0	35428	
6444	0	35820	
6445	0	36192	
6446	0	36544	
6447	0	36782	
6448	0	36740	
6449	0	36552	
6450	0	36352	
6451	0	36180	
6452	0	36060	
6453	0	35960	
6454	0	35976	
6455	0	36108	
6456	0	36368	
6457	0	36616	
6458	0	36732	
6459	0	36788	
6460	0	36872	
6461	0	36996	
6462	0	37188	
6463	0	37444	
6464	0	37768	
6465	0	38112	
6466	0	38456	
6467	0	38620	
6468	0	38512	
6469	0	38268	
6470	0	38000	
6471	0	37768	
6472	0	37612	
6473	0	37504	
6474	0	37512	
6475	0	37592	
6476	0	37748	
6477	0	37864	
6478	0	37836	
6479	0	37740	
6480	0	37708	
6481	0	37724	
6482	0	37824	
6483	0	37988	
6484	0	38220	
6485	0	38472	
6486	0	38688	
6487	0	38796	
6488	0	38636	
6489	0	38296	
6490	0	37920	
6491	0	37512	
6492	0	37156	
6493	0	36848	
6494	0	36652	
6495	0	36600	
6496	0	36648	
6497	0	36688	
6498	0	36584	
6499	0	36368	
6500	0	36168	
6501	0	36036	
6502	0	36000	
6503	0	36048	
6504	0	36192	
6505	0	36320	
6506	0	36388	
6507	0	36336	
6508	0	36020	
6509	0	35532	
6510	0	34984	
6511	0	34480	
6512	0	33992	
6513	0	33584	
6514	0	33232	
6515	0	33024	
6516	0	32948	
6517	0	32840	
6518	0	32552	
6519	0	32240	
6520	0	31980	
6521	0	31844	
6522	0	31832	
6523	0	31852	
6524	0	31892	
6525	0	31980	
6526	0	32056	
6527	0	32000	
6528	0	31736	
6529	0	31276	
6530	0	30724	
6531	0	30276	
6532	0	29922	
6533	0	29644	
6534	0	29417	
6535	0	29320	
6536	0	29276	
6537	0	29296	
6538	0	29204	
6539	0	29028	
6540	0	28893	
6541	0	28860	
6542	0	28916	
6543	0	29068	
6544	0	29232	
6545	0	29388	
6546	0	29580	
6547	0	29760	
6548	0	29648	
6549	0	29368	
6550	0	29008	
6551	0	28705	
6552	0	28480	
6553	0	28312	
6554	0	28212	
6555	0	28232	
6556	0	28304	
6557	0	28324	
6558	0	28238	
6559	0	28080	
6560	0	28032	
6561	0	28076	
6562	0	28196	
6563	0	28416	
6564	0	28692	
6565	0	28924	
6566	0	29180	
6567	0	29328	
6568	0	29164	
6569	0	28848	
6570	0	28528	
6571	0	28228	
6572	0	27988	
6573	0	27836	
6574	0	27828	
6575	0	27920	
6576	0	28072	
6577	0	28230	
6578	0	28232	
6579	0	28180	
6580	0	28180	
6581	0	28252	
6582	0	28396	
6583	0	28624	
6584	0	28936	
6585	0	29228	
6586	0	29448	
6587	0	29568	
6588	0	29492	
6589	0	29300	
6590	0	29056	
6591	0	28852	
6592	0	28700	
6593	0	28588	
6594	0	28542	
6595	0	28584	
6596	0	28728	
6597	0	28884	
6598	0	28900	
6599	0	28832	
6600	0	28848	
6601	0	28928	
6602	0	29084	
6603	0	29280	
6604	0	29528	
6605	0	29776	
6606	0	30016	
6607	0	30124	
6608	0	30002	
6609	0	29744	
6610	0	29476	
6611	0	29196	
6612	0	29048	
6613	0	28920	
6614	0	28872	
6615	0	28924	
6616	0	29044	
6617	0	29208	
6618	0	29268	
6619	0	29224	
6620	0	29228	
6621	0	29301	
6622	0	29466	
6623	0	29716	
6624	0	30012	
6625	0	30320	
6626	0	30612	
6627	0	30760	
6628	0	30708	
6629	0	30480	
6630	0	30200	
6631	0	29960	
6632	0	29768	
6633	0	29664	
6634	0	29616	
6635	0	29620	
6636	0	29728	
6637	0	29864	
6638	0	29840	
6639	0	29748	
6640	0	29796	
6641	0	29896	
6642	0	30040	
6643	0	30264	
6644	0	30556	
6645	0	30846	
6646	0	31110	
6647	0	31236	
6648	0	31144	
6649	0	30896	
6650	0	30572	
6651	0	30288	
6652	0	30112	
6653	0	30020	
6654	0	29972	
6655	0	30008	
6656	0	30168	
6657	0	30344	
6658	0	30416	
6659	0	30396	
6660	0	30424	
6661	0	30522	
6662	0	30676	
6663	0	30912	
6664	0	31168	
6665	0	31448	
6666	0	31732	
6667	0	31920	
6668	0	31788	
6669	0	31452	
6670	0	31092	
6671	0	30820	
6672	0	30608	
6673	0	30432	
6674	0	30362	
6675	0	30376	
6676	0	30508	
6677	0	30664	
6678	0	30692	
6679	0	30674	
6680	0	30676	
6681	0	30748	
6682	0	30828	
6683	0	30981	
6684	0	31216	
6685	0	31492	
6686	0	31704	
6687	0	31824	
6688	0	31712	
6689	0	31440	
6690	0	31128	
6691	0	30852	
6692	0	30638	
6693	0	30492	
6694	0	30460	
6695	0	30500	
6696	0	30656	
6697	0	30868	
6698	0	30912	
6699	0	30820	
6700	0	30772	
6701	0	30816	
6702	0	30976	
6703	0	31244	
6704	0	31560	
6705	0	31852	
6706	0	32092	
6707	0	32176	
6708	0	32032	
6709	0	31688	
6710	0	31288	
6711	0	30948	
6712	0	30684	
6713	0	30520	
6714	0	30444	
6715	0	30480	
6716	0	30600	
6717	0	30756	
6718	0	30762	
6719	0	30672	
6720	0	30616	
6721	0	30624	
6722	0	30778	
6723	0	31034	
6724	0	31300	
6725	0	31616	
6726	0	31896	
6727	0	32144	
6728	0	32096	
6729	0	31786	
6730	0	31436	
6731	0	31124	
6732	0	30916	
6733	0	30764	
6734	0	30728	
6735	0	30814	
6736	0	31024	
6737	0	31224	
6738	0	31256	
6739	0	31200	
6740	0	31140	
6741	0	31156	
6742	0	31256	
6743	0	31432	
6744	0	31672	
6745	0	31920	
6746	0	32164	
6747	0	32280	
6748	0	32154	
6749	0	31884	
6750	0	31548	
6751	0	31244	
6752	0	30952	
6753	0	30768	
6754	0	30696	
6755	0	30716	
6756	0	30796	
6757	0	30952	
6758	0	30970	
6759	0	30888	
6760	0	30834	
6761	0	30892	
6762	0	31068	
6763	0	31296	
6764	0	31568	
6765	0	31824	
6766	0	32056	
6767	0	32184	
6768	0	32040	
6769	0	31712	
6770	0	31372	
6771	0	31137	
6772	0	30956	
6773	0	30820	
6774	0	30748	
6775	0	30764	
6776	0	30896	
6777	0	31056	
6778	0	31052	
6779	0	30992	
6780	0	30972	
6781	0	31036	
6782	0	31184	
6783	0	31444	
6784	0	31720	
6785	0	31996	
6786	0	32240	
6787	0	32400	
6788	0	32316	
6789	0	32048	
6790	0	31762	
6791	0	31512	
6792	0	31340	
6793	0	31216	
6794	0	31132	
6795	0	31188	
6796	0	31324	
6797	0	31468	
6798	0	31432	
6799	0	31344	
6800	0	31332	
6801	0	31400	
6802	0	31536	
6803	0	31764	
6804	0	32012	
6805	0	32264	
6806	0	32512	
6807	0	32648	
6808	0	32520	
6809	0	32228	
6810	0	31920	
6811	0	31648	
6812	0	31412	
6813	0	31252	
6814	0	31192	
6815	0	31246	
6816	0	31392	
6817	0	31536	
6818	0	31552	
6819	0	31448	
6820	0	31408	
6821	0	31488	
6822	0	31620	
6823	0	31828	
6824	0	32090	
6825	0	32420	
6826	0	32756	
6827	0	32944	
6828	0	32856	
6829	0	32556	
6830	0	32184	
6831	0	31848	
6832	0	31580	
6833	0	31428	
6834	0	31388	
6835	0	31464	
6836	0	31628	
6837	0	31764	
6838	0	31724	
6839	0	31628	
6840	0	31572	
6841	0	31632	
6842	0	31788	
6843	0	32042	
6844	0	32320	
6845	0	32552	
6846	0	32728	
6847	0	32788	
6848	0	32608	
6849	0	32264	
6850	0	31928	
6851	0	31652	
6852	0	31456	
6853	0	31340	
6854	0	31296	
6855	0	31368	
6856	0	31552	
6857	0	31742	
6858	0	31780	
6859	0	31736	
6860	0	31690	
6861	0	31770	
6862	0	31916	
6863	0	32096	
6864	0	32340	
6865	0	32616	
6866	0	32876	
6867	0	33000	
6868	0	32876	
6869	0	32564	
6870	0	32208	
6871	0	31920	
6872	0	31688	
6873	0	31560	
6874	0	31532	
6875	0	31640	
6876	0	31764	
6877	0	31856	
6878	0	31808	
6879	0	31725	
6880	0	31760	
6881	0	31848	
6882	0	32024	
6883	0	32224	
6884	0	32480	
6885	0	32720	
6886	0	32904	
6887	0	32968	
6888	0	32840	
6889	0	32600	
6890	0	32304	
6891	0	32048	
6892	0	31880	
6893	0	31792	
6894	0	31792	
6895	0	31860	
6896	0	31984	
6897	0	32104	
6898	0	32100	
6899	0	32012	
6900	0	32004	
6901	0	32080	
6902	0	32240	
6903	0	32464	
6904	0	32736	
6905	0	32954	
6906	0	33148	
6907	0	33232	
6908	0	33016	
6909	0	32656	
6910	0	32320	
6911	0	32056	
6912	0	31860	
6913	0	31788	
6914	0	31764	
6915	0	31812	
6916	0	31952	
6917	0	32088	
6918	0	32068	
6919	0	31952	
6920	0	31896	
6921	0	31948	
6922	0	32096	
6923	0	32364	
6924	0	32652	
6925	0	32900	
6926	0	33140	
6927	0	33236	
6928	0	33056	
6929	0	32712	
6930	0	32340	
6931	0	32024	
6932	0	31800	
6933	0	31672	
6934	0	31692	
6935	0	31792	
6936	0	31960	
6937	0	32080	
6938	0	32032	
6939	0	31960	
6940	0	31940	
6941	0	31952	
6942	0	32032	
6943	0	32228	
6944	0	32464	
6945	0	32680	
6946	0	32840	
6947	0	32916	
6948	0	32792	
6949	0	32548	
6950	0	32298	
6951	0	32036	
6952	0	31848	
6953	0	31728	
6954	0	31704	
6955	0	31760	
6956	0	31896	
6957	0	31992	
6958	0	31946	
6959	0	31888	
6960	0	31862	
6961	0	31936	
6962	0	32128	
6963	0	32376	
6964	0	32608	
6965	0	32832	
6966	0	33028	
6967	0	33088	
6968	0	32912	
6969	0	32620	
6970	0	32256	
6971	0	31968	
6972	0	31748	
6973	0	31642	
6974	0	31660	
6975	0	31776	
6976	0	31936	
6977	0	32008	
6978	0	31992	
6979	0	31988	
6980	0	32040	
6981	0	32152	
6982	0	32340	
6983	0	32576	
6984	0	32824	
6985	0	33056	
6986	0	33232	
6987	0	33304	
6988	0	33130	
6989	0	32796	
6990	0	32416	
6991	0	32100	
6992	0	31924	
6993	0	31848	
6994	0	31860	
6995	0	31912	
6996	0	32024	
6997	0	32128	
6998	0	32104	
6999	0	32036	
7000	0	32040	
7001	0	32112	
7002	0	32240	
7003	0	32452	
7004	0	32664	
7005	0	32920	
7006	0	33168	
7007	0	33210	
7008	0	33022	
7009	0	32728	
7010	0	32468	
7011	0	32268	
7012	0	32124	
7013	0	32088	
7014	0	32092	
7015	0	32136	
7016	0	32228	
7017	0	32316	
7018	0	32304	
7019	0	32256	
7020	0	32264	
7021	0	32364	
7022	0	32536	
7023	0	32784	
7024	0	33008	
7025	0	33232	
7026	0	33476	
7027	0	33560	
7028	0	33376	
7029	0	33004	
7030	0	32616	
7031	0	32340	
7032	0	32196	
7033	0	32132	
7034	0	32124	
7035	0	32196	
7036	0	32312	
7037	0	32364	
7038	0	32276	
7039	0	32188	
7040	0	32164	
7041	0	32256	
7042	0	32452	
7043	0	32692	
7044	0	32936	
7045	0	33176	
7046	0	33412	
7047	0	33440	
7048	0	33228	
7049	0	32960	
7050	0	32656	
7051	0	32424	
7052	0	32202	
7053	0	32106	
7054	0	32128	
7055	0	32200	
7056	0	32292	
7057	0	32328	
7058	0	32256	
7059	0	32162	
7060	0	32144	
7061	0	32268	
7062	0	32500	
7063	0	32748	
7064	0	32970	
7065	0	33168	
7066	0	33396	
7067	0	33448	
7068	0	33260	
7069	0	32940	
7070	0	32620	
7071	0	32408	
7072	0	32236	
7073	0	32144	
7074	0	32112	
7075	0	32212	
7076	0	32432	
7077	0	32616	
7078	0	32688	
7079	0	32648	
7080	0	32600	
7081	0	32580	
7082	0	32664	
7083	0	32900	
7084	0	33154	
7085	0	33396	
7086	0	33548	
7087	0	33484	
7088	0	33208	
7089	0	32864	
7090	0	32640	
7091	0	32424	
7092	0	32228	
7093	0	32104	
7094	0	32042	
7095	0	32088	
7096	0	32224	
7097	0	32396	
7098	0	32484	
7099	0	32416	
7100	0	32348	
7101	0	32396	
7102	0	32536	
7103	0	32788	
7104	0	33088	
7105	0	33348	
7106	0	33552	
7107	0	33550	
7108	0	33312	
7109	0	32972	
7110	0	32624	
7111	0	32332	
7112	0	32140	
7113	0	32072	
7114	0	32048	
7115	0	32138	
7116	0	32292	
7117	0	32320	
7118	0	32232	
7119	0	32158	
7120	0	32152	
7121	0	32256	
7122	0	32464	
7123	0	32736	
7124	0	33032	
7125	0	33280	
7126	0	33488	
7127	0	33520	
7128	0	33380	
7129	0	33144	
7130	0	32864	
7131	0	32676	
7132	0	32538	
7133	0	32552	
7134	0	32704	
7135	0	32912	
7136	0	33208	
7137	0	33428	
7138	0	33538	
7139	0	33608	
7140	0	33676	
7141	0	33840	
7142	0	34072	
7143	0	34328	
7144	0	34554	
7145	0	34752	
7146	0	34920	
7147	0	34900	
7148	0	34640	
7149	0	34328	
7150	0	34040	
7151	0	33781	
7152	0	33584	
7153	0	33516	
7154	0	33560	
7155	0	33692	
7156	0	33916	
7157	0	34088	
7158	0	34096	
7159	0	34056	
7160	0	34112	
7161	0	34248	
7162	0	34376	
7163	0	34544	
7164	0	34676	
7165	0	34752	
7166	0	34800	
7167	0	34672	
7168	0	34364	
7169	0	33928	
7170	0	33544	
7171	0	33240	
7172	0	33049	
7173	0	32956	
7174	0	32920	
7175	0	32896	
7176	0	32940	
7177	0	32944	
7178	0	32904	
7179	0	32854	
7180	0	32856	
7181	0	32880	
7182	0	32996	
7183	0	33172	
7184	0	33420	
7185	0	33652	
7186	0	33884	
7187	0	33896	
7188	0	33772	
7189	0	33568	
7190	0	33392	
7191	0	33292	
7192	0	33240	
7193	0	33132	
7194	0	33068	
7195	0	33060	
7196	0	33128	
7197	0	33080	
7198	0	32968	
7199	0	32920	
7200	0	32916	
7201	0	33008	
7202	0	33168	
7203	0	33406	
7204	0	33640	
7205	0	33824	
7206	0	33936	
7207	0	33848	
7208	0	33536	
7209	0	33172	
7210	0	32860	
7211	0	32602	
7212	0	32412	
7213	0	32284	
7214	0	32200	
7215	0	32224	
7216	0	32304	
7217	0	32312	
7218	0	32208	
7219	0	32096	
7220	0	32084	
7221	0	32096	
7222	0	32164	
7223	0	32312	
7224	0	32508	
7225	0	32716	
7226	0	32872	
7227	0	32846	
7228	0	32672	
7229	0	32404	
7230	0	32124	
7231	0	31888	
7232	0	31672	
7233	0	31552	
7234	0	31544	
7235	0	31620	
7236	0	31772	
7237	0	31824	
7238	0	31772	
7239	0	31700	
7240	0	31738	
7241	0	31872	
7242	0	32000	
7243	0	32186	
7244	0	32424	
7245	0	32648	
7246	0	32836	
7247	0	32844	
7248	0	32680	
7249	0	32420	
7250	0	32144	
7251	0	31956	
7252	0	31872	
7253	0	31822	
7254	0	31860	
7255	0	31952	
7256	0	32112	
7257	0	32184	
7258	0	32120	
7259	0	32060	
7260	0	32080	
7261	0	32216	
7262	0	32416	
7263	0	32584	
7264	0	32776	
7265	0	32976	
7266	0	33104	
7267	0	32980	
7268	0	32608	
7269	0	32128	
7270	0	31696	
7271	0	31272	
7272	0	30940	
7273	0	30760	
7274	0	30672	
7275	0	30656	
7276	0	30660	
7277	0	30556	
7278	0	30320	
7279	0	30104	
7280	0	30104	
7281	0	30400	
7282	0	30920	
7283	0	31544	
7284	0	32314	
7285	0	33272	
7286	0	34392	
7287	0	35428	
7288	0	36392	
7289	0	37484	
7290	0	38624	
7291	0	39848	
7292	0	41180	
7293	0	42728	
7294	0	44536	
7295	0	46712	
7296	0	49328	
7297	0	52132	
7298	0	54760	
7299	0	57368	
7300	0	59740	
7301	0	61732	
7302	0	63424	
7303	0	64744	
7304	0	65496	
7305	0	65535	
7306	0	65535	
7307	0	65535	
7308	0	65535	
7309	0	65535	
7310	0	65535	
7311	0	65535	
7312	0	63010	
7313	0	58640	
7314	0	54484	
7315	0	50852	
7316	0	47792	
7317	0	45084	
7318	0	42616	
7319	0	40476	
7320	0	38668	
7321	0	37088	
7322	0	35928	
7323	0	35160	
7324	0	34660	
7325	0	34324	
7326	0	34072	
7327	0	33672	
7328	0	33112	
7329	0	32396	
7330	0	31688	
7331	0	31044	
7332	0	30500	
7333	0	30108	
7334	0	29826	
7335	0	29624	
7336	0	29510	
7337	0	29320	
7338	0	29064	
7339	0	28890	
7340	0	28760	
7341	0	28696	
7342	0	28704	
7343	0	28788	
7344	0	28928	
7345	0	29000	
7346	0	28996	
7347	0	28860	
7348	0	28584	
7349	0	28284	
7350	0	28052	
7351	0	27894	
7352	0	27788	
7353	0	27758	
7354	0	27784	
7355	0	27824	
7356	0	27920	
7357	0	27892	
7358	0	27728	
7359	0	27624	
7360	0	27660	
7361	0	27804	
7362	0	27976	
7363	0	28164	
7364	0	28368	
7365	0	28600	
7366	0	28720	
7367	0	28650	
7368	0	28436	
7369	0	28226	
7370	0	28056	
7371	0	27938	
7372	0	27884	
7373	0	27962	
7374	0	28088	
7375	0	28216	
7376	0	28332	
7377	0	28368	
7378	0	28324	
7379	0	28330	
7380	0	28384	
7381	0	28520	
7382	0	28708	
7383	0	28928	
7384	0	29164	
7385	0	29396	
7386	0	29584	
7387	0	29588	
7388	0	29412	
7389	0	29136	
7390	0	28952	
7391	0	28832	
7392	0	28736	
7393	0	28688	
7394	0	28736	
7395	0	28860	
7396	0	28976	
7397	0	28932	
7398	0	28856	
7399	0	28920	
7400	0	28998	
7401	0	29100	
7402	0	29280	
7403	0	29484	
7404	0	29752	
7405	0	30028	
7406	0	30244	
7407	0	30212	
7408	0	30024	
7409	0	29804	
7410	0	29580	
7411	0	29440	
7412	0	29336	
7413	0	29312	
7414	0	29364	
7415	0	29520	
7416	0	29692	
7417	0	29752	
7418	0	29700	
7419	0	29684	
7420	0	29736	
7421	0	29864	
7422	0	30072	
7423	0	30332	
7424	0	30584	
7425	0	30756	
7426	0	30952	
7427	0	30886	
7428	0	30624	
7429	0	30344	
7430	0	30108	
7431	0	29932	
7432	0	29904	
7433	0	29968	
7434	0	30065	
7435	0	30212	
7436	0	30352	
7437	0	30388	
7438	0	30378	
7439	0	30384	
7440	0	30432	
7441	0	30540	
7442	0	30792	
7443	0	31136	
7444	0	31436	
7445	0	31650	
7446	0	31810	
7447	0	31760	
7448	0	31528	
7449	0	31256	
7450	0	31000	
7451	0	30814	
7452	0	30728	
7453	0	30794	
7454	0	30900	
7455	0	31014	
7456	0	31170	
7457	0	31232	
7458	0	31216	
7459	0	31252	
7460	0	31348	
7461	0	31512	
7462	0	31748	
7463	0	31968	
7464	0	32152	
7465	0	32353	
7466	0	32512	
7467	0	32484	
7468	0	32264	
7469	0	32032	
7470	0	31820	
7471	0	31676	
7472	0	31616	
7473	0	31612	
7474	0	31676	
7475	0	31780	
7476	0	31944	
7477	0	32020	
7478	0	32036	
7479	0	32072	
7480	0	32164	
7481	0	32328	
7482	0	32568	
7483	0	32872	
7484	0	33124	
7485	0	33344	
7486	0	33508	
7487	0	33532	
7488	0	33409	
7489	0	33192	
7490	0	33036	
7491	0	32956	
7492	0	32936	
7493	0	32924	
7494	0	32972	
7495	0	33168	
7496	0	33352	
7497	0	33432	
7498	0	33500	
7499	0	33616	
7500	0	33796	
7501	0	33986	
7502	0	34212	
7503	0	34504	
7504	0	34864	
7505	0	35196	
7506	0	35440	
7507	0	35510	
7508	0	35468	
7509	0	35306	
7510	0	35156	
7511	0	35092	
7512	0	35016	
7513	0	35000	
7514	0	35056	
7515	0	35228	
7516	0	35420	
7517	0	35548	
7518	0	35640	
7519	0	35720	
7520	0	35896	
7521	0	36144	
7522	0	36400	
7523	0	36712	
7524	0	37028	
7525	0	37288	
7526	0	37484	
7527	0	37536	
7528	0	37492	
7529	0	37404	
7530	0	37296	
7531	0	37216	
7532	0	37228	
7533	0	37296	
7534	0	37412	
7535	0	37584	
7536	0	37752	
7537	0	37872	
7538	0	37920	
7539	0	37976	
7540	0	38072	
7541	0	38228	
7542	0	38448	
7543	0	38692	
7544	0	38960	
7545	0	39184	
7546	0	39300	
7547	0	39232	
7548	0	39056	
7549	0	38848	
7550	0	38680	
7551	0	38564	
7552	0	38432	
7553	0	38334	
7554	0	38260	
7555	0	38248	
7556	0	38320	
7557	0	38288	
7558	0	38168	
7559	0	38060	
7560	0	38104	
7561	0	38212	
7562	0	38388	
7563	0	38576	
7564	0	38736	
7565	0	38896	
7566	0	38948	
7567	0	38736	
7568	0	38372	
7569	0	37992	
7570	0	37616	
7571	0	37308	
7572	0	37048	
7573	0	36876	
7574	0	36784	
7575	0	36744	
7576	0	36708	
7577	0	36548	
7578	0	36312	
7579	0	36098	
7580	0	35912	
7581	0	35756	
7582	0	35724	
7583	0	35748	
7584	0	35740	
7585	0	35714	
7586	0	35580	
7587	0	35312	
7588	0	34888	
7589	0	34428	
7590	0	33976	
7591	0	33524	
7592	0	33172	
7593	0	32888	
7594	0	32704	
7595	0	32600	
7596	0	32520	
7597	0	32320	
7598	0	32032	
7599	0	31816	
7600	0	31660	
7601	0	31584	
7602	0	31624	
7603	0	31696	
7604	0	31780	
7605	0	31824	
7606	0	31732	
7607	0	31424	
7608	0	30966	
7609	0	30540	
7610	0	30176	
7611	0	29912	
7612	0	29688	
7613	0	29580	
7614	0	29576	
7615	0	29644	
7616	0	29656	
7617	0	29524	
7618	0	29344	
7619	0	29216	
7620	0	29160	
7621	0	29180	
7622	0	29296	
7623	0	29480	
7624	0	29688	
7625	0	29892	
7626	0	29944	
7627	0	29712	
7628	0	29348	
7629	0	29076	
7630	0	28864	
7631	0	28668	
7632	0	28500	
7633	0	28432	
7634	0	28444	
7635	0	28512	
7636	0	28620	
7637	0	28616	
7638	0	28576	
7639	0	28624	
7640	0	28692	
7641	0	28860	
7642	0	29096	
7643	0	29364	
7644	0	29624	
7645	0	29872	
7646	0	29938	
7647	0	29796	
7648	0	29512	
7649	0	29220	
7650	0	29004	
7651	0	28872	
7652	0	28772	
7653	0	28745	
7654	0	28808	
7655	0	28928	
7656	0	29056	
7657	0	29097	
7658	0	29064	
7659	0	29104	
7660	0	29164	
7661	0	29316	
7662	0	29552	
7663	0	29784	
7664	0	30032	
7665	0	30284	
7666	0	30396	
7667	0	30308	
7668	0	30104	
7669	0	29840	
7670	0	29608	
7671	0	29437	
7672	0	29368	
7673	0	29336	
7674	0	29380	
7675	0	29468	
7676	0	29548	
7677	0	29512	
7678	0	29460	
7679	0	29472	
7680	0	29572	
7681	0	29740	
7682	0	29960	
7683	0	30248	
7684	0	30540	
7685	0	30792	
7686	0	30920	
7687	0	30784	
7688	0	30504	
7689	0	30168	
7690	0	29932	
7691	0	29840	
7692	0	29880	
7693	0	29920	
7694	0	29968	
7695	0	30032	
7696	0	30108	
7697	0	30112	
7698	0	30080	
7699	0	30096	
7700	0	30152	
7701	0	30272	
7702	0	30472	
7703	0	30744	
7704	0	31028	
7705	0	31300	
7706	0	31404	
7707	0	31256	
7708	0	30956	
7709	0	30650	
7710	0	30460	
7711	0	30354	
7712	0	30296	
7713	0	30300	
7714	0	30350	
7715	0	30476	
7716	0	30686	
7717	0	30752	
7718	0	30732	
7719	0	30752	
7720	0	30828	
7721	0	30980	
7722	0	31212	
7723	0	31480	
7724	0	31704	
7725	0	31890	
7726	0	31980	
7727	0	31836	
7728	0	31568	
7729	0	31268	
7730	0	31016	
7731	0	30840	
7732	0	30716	
7733	0	30624	
7734	0	30658	
7735	0	30762	
7736	0	30888	
7737	0	30896	
7738	0	30864	
7739	0	30892	
7740	0	30964	
7741	0	31112	
7742	0	31384	
7743	0	31696	
7744	0	31976	
7745	0	32168	
7746	0	32204	
7747	0	32048	
7748	0	31786	
7749	0	31492	
7750	0	31224	
7751	0	31028	
7752	0	30946	
7753	0	30936	
7754	0	30972	
7755	0	31096	
7756	0	31204	
7757	0	31196	
7758	0	31144	
7759	0	31152	
7760	0	31216	
7761	0	31372	
7762	0	31648	
7763	0	31924	
7764	0	32188	
7765	0	32472	
7766	0	32568	
7767	0	32440	
7768	0	32212	
7769	0	31956	
7770	0	31716	
7771	0	31488	
7772	0	31332	
7773	0	31284	
7774	0	31288	
7775	0	31336	
7776	0	31392	
7777	0	31360	
7778	0	31304	
7779	0	31324	
7780	0	31396	
7781	0	31512	
7782	0	31712	
7783	0	32006	
7784	0	32262	
7785	0	32466	
7786	0	32512	
7787	0	32342	
7788	0	32080	
7789	0	31820	
7790	0	31604	
7791	0	31420	
7792	0	31352	
7793	0	31344	
7794	0	31396	
7795	0	31520	
7796	0	31608	
7797	0	31592	
7798	0	31556	
7799	0	31532	
7800	0	31568	
7801	0	31704	
7802	0	31880	
7803	0	32092	
7804	0	32304	
7805	0	32456	
7806	0	32520	
7807	0	32340	
7808	0	32048	
7809	0	31744	
7810	0	31460	
7811	0	31240	
7812	0	31116	
7813	0	31084	
7814	0	31117	
7815	0	31256	
7816	0	31352	
7817	0	31340	
7818	0	31316	
7819	0	31356	
7820	0	31456	
7821	0	31604	
7822	0	31880	
7823	0	32136	
7824	0	32404	
7825	0	32592	
7826	0	32604	
7827	0	32404	
7828	0	32104	
7829	0	31872	
7830	0	31660	
7831	0	31492	
7832	0	31368	
7833	0	31304	
7834	0	31348	
7835	0	31520	
7836	0	31632	
7837	0	31632	
7838	0	31584	
7839	0	31544	
7840	0	31600	
7841	0	31730	
7842	0	31992	
7843	0	32292	
7844	0	32576	
7845	0	32780	
7846	0	32864	
7847	0	32724	
7848	0	32452	
7849	0	32140	
7850	0	31892	
7851	0	31660	
7852	0	31520	
7853	0	31466	
7854	0	31528	
7855	0	31616	
7856	0	31674	
7857	0	31640	
7858	0	31584	
7859	0	31616	
7860	0	31724	
7861	0	31880	
7862	0	32112	
7863	0	32328	
7864	0	32544	
7865	0	32788	
7866	0	32892	
7867	0	32752	
7868	0	32437	
7869	0	32144	
7870	0	31880	
7871	0	31668	
7872	0	31584	
7873	0	31576	
7874	0	31676	
7875	0	31864	
7876	0	31986	
7877	0	31960	
7878	0	31920	
7879	0	31928	
7880	0	31992	
7881	0	32136	
7882	0	32388	
7883	0	32668	
7884	0	32932	
7885	0	33148	
7886	0	33184	
7887	0	32972	
7888	0	32624	
7889	0	32260	
7890	0	31956	
7891	0	31776	
7892	0	31704	
7893	0	31696	
7894	0	31752	
7895	0	31872	
7896	0	31930	
7897	0	31936	
7898	0	31896	
7899	0	31888	
7900	0	31960	
7901	0	32100	
7902	0	32356	
7903	0	32624	
7904	0	32884	
7905	0	33120	
7906	0	33208	
7907	0	33064	
7908	0	32736	
7909	0	32364	
7910	0	32048	
7911	0	31820	
7912	0	31696	
7913	0	31736	
7914	0	31857	
7915	0	32044	
7916	0	32092	
7917	0	31988	
7918	0	31853	
7919	0	31820	
7920	0	31872	
7921	0	32032	
7922	0	32284	
7923	0	32596	
7924	0	32896	
7925	0	33176	
7926	0	33264	
7927	0	33088	
7928	0	32768	
7929	0	32476	
7930	0	32220	
7931	0	32050	
7932	0	31972	
7933	0	32016	
7934	0	32108	
7935	0	32280	
7936	0	32396	
7937	0	32378	
7938	0	32272	
7939	0	32260	
7940	0	32332	
7941	0	32494	
7942	0	32756	
7943	0	33064	
7944	0	33344	
7945	0	33532	
7946	0	33540	
7947	0	33336	
7948	0	32980	
7949	0	32626	
7950	0	32324	
7951	0	32084	
7952	0	31948	
7953	0	31908	
7954	0	31984	
7955	0	32104	
7956	0	32204	
7957	0	32192	
7958	0	32144	
7959	0	32188	
7960	0	32304	
7961	0	32512	
7962	0	32804	
7963	0	33096	
7964	0	33336	
7965	0	33528	
7966	0	33608	
7967	0	33474	
7968	0	33180	
7969	0	32872	
7970	0	32576	
7971	0	32368	
7972	0	32280	
7973	0	32256	
7974	0	32352	
7975	0	32524	
7976	0	32548	
7977	0	32424	
7978	0	32288	
7979	0	32304	
7980	0	32376	
7981	0	32512	
7982	0	32776	
7983	0	33080	
7984	0	33328	
7985	0	33541	
7986	0	33568	
7987	0	33364	
7988	0	33026	
7989	0	32688	
7990	0	32384	
7991	0	32168	
7992	0	32056	
7993	0	32056	
7994	0	32192	
7995	0	32392	
7996	0	32472	
7997	0	32416	
7998	0	32332	
7999	0	32328	
8000	0	32440	
8001	0	32628	
8002	0	32913	
8003	0	33252	
8004	0	33520	
8005	0	33724	
8006	0	33740	
8007	0	33516	
8008	0	33184	
8009	0	32852	
8010	0	32578	
8011	0	32308	
8012	0	32204	
8013	0	32212	
8014	0	32312	
8015	0	32444	
8016	0	32504	
8017	0	32440	
8018	0	32384	
8019	0	32392	
8020	0	32504	
8021	0	32716	
8022	0	32992	
8023	0	33276	
8024	0	33568	
8025	0	33784	
8026	0	33760	
8027	0	33486	
8028	0	33072	
8029	0	32704	
8030	0	32384	
8031	0	32136	
8032	0	31978	
8033	0	31960	
8034	0	32048	
8035	0	32248	
8036	0	32336	
8037	0	32304	
8038	0	32244	
8039	0	32292	
8040	0	32424	
8041	0	32672	
8042	0	32992	
8043	0	33368	
8044	0	33740	
8045	0	33996	
8046	0	34000	
8047	0	33816	
8048	0	33524	
8049	0	33248	
8050	0	33020	
8051	0	32848	
8052	0	32728	
8053	0	32728	
8054	0	32784	
8055	0	32944	
8056	0	33056	
8057	0	33056	
8058	0	32980	
8059	0	32928	
8060	0	32960	
8061	0	33100	
8062	0	33292	
8063	0	33456	
8064	0	33624	
8065	0	33796	
8066	0	33800	
8067	0	33584	
8068	0	33272	
8069	0	32976	
8070	0	32690	
8071	0	32460	
8072	0	32336	
8073	0	32328	
8074	0	32388	
8075	0	32568	
8076	0	32660	
8077	0	32620	
8078	0	32540	
8079	0	32528	
8080	0	32604	
8081	0	32808	
8082	0	33104	
8083	0	33404	
8084	0	33720	
8085	0	33968	
8086	0	33908	
8087	0	33552	
8088	0	33100	
8089	0	32688	
8090	0	32384	
8091	0	32160	
8092	0	32064	
8093	0	32092	
8094	0	32240	
8095	0	32412	
8096	0	32452	
8097	0	32380	
8098	0	32298	
8099	0	32312	
8100	0	32448	
8101	0	32700	
8102	0	33040	
8103	0	33376	
8104	0	33674	
8105	0	33960	
8106	0	34018	
8107	0	33776	
8108	0	33376	
8109	0	33000	
8110	0	32748	
8111	0	32608	
8112	0	32552	
8113	0	32576	
8114	0	32656	
8115	0	32824	
8116	0	32868	
8117	0	32764	
8118	0	32676	
8119	0	32712	
8120	0	32828	
8121	0	33048	
8122	0	33352	
8123	0	33668	
8124	0	33960	
8125	0	34220	
8126	0	34240	
8127	0	34012	
8128	0	33652	
8129	0	33288	
8130	0	33032	
8131	0	32812	
8132	0	32728	
8133	0	32744	
8134	0	32816	
8135	0	32928	
8136	0	32936	
8137	0	32848	
8138	0	32808	
8139	0	32896	
8140	0	33072	
8141	0	33328	
8142	0	33632	
8143	0	33928	
8144	0	34192	
8145	0	34412	
8146	0	34392	
8147	0	34112	
8148	0	33664	
8149	0	33244	
8150	0	32960	
8151	0	32736	
8152	0	32600	
8153	0	32588	
8154	0	32654	
8155	0	32774	
8156	0	32796	
8157	0	32736	
8158	0	32698	
8159	0	32764	
8160	0	32896	
8161	0	33084	
8162	0	33312	
8163	0	33568	
8164	0	33796	
8165	0	34016	
8166	0	33992	
8167	0	33724	
8168	0	33336	
8169	0	32960	
8170	0	32672	
8171	0	32508	
8172	0	32528	
8173	0	32588	
8174	0	32748	
8175	0	32976	
8176	0	33084	
8177	0	33056	
8178	0	33040	
8179	0	33124	
8180	0	33284	
8181	0	33540	
8182	0	33796	
8183	0	34032	
8184	0	34292	
8185	0	34512	
8186	0	34472	
8187	0	34160	
8188	0	33712	
8189	0	33324	
8190	0	33020	
8191	0	32820	
8192	0	32720	
8193	0	32712	
8194	0	32752	
8195	0	32872	
8196	0	32860	
8197	0	32704	
8198	0	32608	
8199	0	32640	
8200	0	32753	
8201	0	33016	
8202	0	33412	
8203	0	33840	
8204	0	34216	
8205	0	34552	
8206	0	34632	
8207	0	34472	
8208	0	34254	
8209	0	34036	
8210	0	33804	
8211	0	33636	
8212	0	33556	
8213	0	33612	
8214	0	33794	
8215	0	34016	
8216	0	34104	
8217	0	34068	
8218	0	34024	
8219	0	34052	
8220	0	34200	
8221	0	34380	
8222	0	34560	
8223	0	34804	
8224	0	35072	
8225	0	35296	
8226	0	35248	
8227	0	34936	
8228	0	34488	
8229	0	34068	
8230	0	33676	
8231	0	33404	
8232	0	33248	
8233	0	33220	
8234	0	33304	
8235	0	33464	
8236	0	33520	
8237	0	33468	
8238	0	33472	
8239	0	33572	
8240	0	33754	
8241	0	33960	
8242	0	34264	
8243	0	34600	
8244	0	34924	
8245	0	35164	
8246	0	35128	
8247	0	34848	
8248	0	34428	
8249	0	33988	
8250	0	33624	
8251	0	33314	
8252	0	33112	
8253	0	33036	
8254	0	33136	
8255	0	33352	
8256	0	33412	
8257	0	33336	
8258	0	33272	
8259	0	33300	
8260	0	33428	
8261	0	33652	
8262	0	33949	
8263	0	34232	
8264	0	34456	
8265	0	34624	
8266	0	34440	
8267	0	33962	
8268	0	33392	
8269	0	32880	
8270	0	32504	
8271	0	32232	
8272	0	32140	
8273	0	32192	
8274	0	32352	
8275	0	32512	
8276	0	32500	
8277	0	32396	
8278	0	32352	
8279	0	32384	
8280	0	32548	
8281	0	32828	
8282	0	33252	
8283	0	33650	
8284	0	33936	
8285	0	34104	
8286	0	33994	
8287	0	33628	
8288	0	33156	
8289	0	32732	
8290	0	32450	
8291	0	32264	
8292	0	32196	
8293	0	32252	
8294	0	32428	
8295	0	32600	
8296	0	32652	
8297	0	32606	
8298	0	32552	
8299	0	32560	
8300	0	32704	
8301	0	32968	
8302	0	33316	
8303	0	33600	
8304	0	33850	
8305	0	34032	
8306	0	33984	
8307	0	33670	
8308	0	33260	
8309	0	32904	
8310	0	32624	
8311	0	32448	
8312	0	32328	
8313	0	32346	
8314	0	32480	
8315	0	32672	
8316	0	32760	
8317	0	32660	
8318	0	32544	
8319	0	32528	
8320	0	32632	
8321	0	32872	
8322	0	33208	
8323	0	33544	
8324	0	33840	
8325	0	33972	
8326	0	33720	
8327	0	33188	
8328	0	32540	
8329	0	31908	
8330	0	31416	
8331	0	31088	
8332	0	30908	
8333	0	30792	
8334	0	30760	
8335	0	30740	
8336	0	30584	
8337	0	30428	
8338	0	30494	
8339	0	30810	
8340	0	31320	
8341	0	32036	
8342	0	33032	
8343	0	34236	
8344	0	35576	
8345	0	36952	
8346	0	38256	
8347	0	39420	
8348	0	40540	
8349	0	41700	
8350	0	43000	
8351	0	44548	
8352	0	46456	
8353	0	48832	
8354	0	51592	
8355	0	54384	
8356	0	57016	
8357	0	59360	
8358	0	61380	
8359	0	63008	
8360	0	64256	
8361	0	64960	
8362	0	65280	
8363	0	65384	
8364	0	65400	
8365	0	65344	
8366	0	65252	
8367	0	65168	
8368	0	65056	
8369	0	61616	
8370	0	57204	
8371	0	52912	
8372	0	49240	
8373	0	46248	
8374	0	43704	
8375	0	41488	
8376	0	39588	
8377	0	37824	
8378	0	36260	
8379	0	35104	
8380	0	34428	
8381	0	34072	
8382	0	34016	
8383	0	34088	
8384	0	34160	
8385	0	34084	
8386	0	33680	
8387	0	33080	
8388	0	32448	
8389	0	31840	
8390	0	31316	
8391	0	30870	
8392	0	30540	
8393	0	30376	
8394	0	30344	
8395	0	30340	
8396	0	30162	
8397	0	29908	
8398	0	29700	
8399	0	29594	
8400	0	29560	
8401	0	29640	
8402	0	29780	
8403	0	30020	
8404	0	30304	
8405	0	30520	
8406	0	30408	
8407	0	30056	
8408	0	29592	
8409	0	29208	
8410	0	28908	
8411	0	28652	
8412	0	28544	
8413	0	28592	
8414	0	28744	
8415	0	28936	
8416	0	28956	
8417	0	28793	
8418	0	28644	
8419	0	28644	
8420	0	28772	
8421	0	29016	
8422	0	29290	
8423	0	29588	
8424	0	29884	
8425	0	30088	
8426	0	29980	
8427	0	29632	
8428	0	29188	
8429	0	28800	
8430	0	28552	
8431	0	28420	
8432	0	28404	
8433	0	28516	
8434	0	28712	
8435	0	28968	
8436	0	29024	
8437	0	28940	
8438	0	28912	
8439	0	28992	
8440	0	29160	
8441	0	29425	
8442	0	29778	
8443	0	30140	
8444	0	30486	
8445	0	30748	
8446	0	30708	
8447	0	30412	
8448	0	30072	
8449	0	29736	
8450	0	29428	
8451	0	29242	
8452	0	29120	
8453	0	29100	
8454	0	29212	
8455	0	29370	
8456	0	29396	
8457	0	29316	
8458	0	29268	
8459	0	29360	
8460	0	29584	
8461	0	29864	
8462	0	30200	
8463	0	30568	
8464	0	30972	
8465	0	31264	
8466	0	31236	
8467	0	30980	
8468	0	30664	
8469	0	30384	
8470	0	30116	
8471	0	29928	
8472	0	29872	
8473	0	29944	
8474	0	30148	
8475	0	30372	
8476	0	30410	
8477	0	30352	
8478	0	30324	
8479	0	30356	
8480	0	30528	
8481	0	30872	
8482	0	31232	
8483	0	31564	
8484	0	31932	
8485	0	32244	
8486	0	32204	
8487	0	31848	
8488	0	31424	
8489	0	31064	
8490	0	30836	
8491	0	30664	
8492	0	30604	
8493	0	30708	
8494	0	30868	
8495	0	31052	
8496	0	31096	
8497	0	31016	
8498	0	30960	
8499	0	31016	
8500	0	31164	
8501	0	31452	
8502	0	31776	
8503	0	32156	
8504	0	32500	
8505	0	32768	
8506	0	32732	
8507	0	32464	
8508	0	32056	
8509	0	31688	
8510	0	31392	
8511	0	31240	
8512	0	31229	
8513	0	31320	
8514	0	31472	
8515	0	31600	
8516	0	31600	
8517	0	31516	
8518	0	31516	
8519	0	31644	
8520	0	31908	
8521	0	32248	
8522	0	32588	
8523	0	32988	
8524	0	33356	
8525	0	33620	
8526	0	33556	
8527	0	33236	
8528	0	32828	
8529	0	32464	
8530	0	32212	
8531	0	32080	
8532	0	32040	
8533	0	32080	
8534	0	32268	
8535	0	32564	
8536	0	32650	
8537	0	32612	
8538	0	32544	
8539	0	32580	
8540	0	32760	
8541	0	33120	
8542	0	33576	
8543	0	34060	
8544	0	34536	
8545	0	34804	
8546	0	34704	
8547	0	34400	
8548	0	34000	
8549	0	33660	
8550	0	33460	
8551	0	33332	
8552	0	33332	
8553	0	33472	
8554	0	33780	
8555	0	34092	
8556	0	34168	
8557	0	34064	
8558	0	34008	
8559	0	34072	
8560	0	34304	
8561	0	34664	
8562	0	35096	
8563	0	35504	
8564	0	35896	
8565	0	36168	
8566	0	36168	
8567	0	36008	
8568	0	35776	
8569	0	35564	
8570	0	35336	
8571	0	35176	
8572	0	35178	
8573	0	35328	
8574	0	35572	
8575	0	35784	
8576	0	35920	
8577	0	36004	
8578	0	36172	
8579	0	36424	
8580	0	36744	
8581	0	37136	
8582	0	37596	
8583	0	38080	
8584	0	38512	
8585	0	38784	
8586	0	38700	
8587	0	38408	
8588	0	38072	
8589	0	37716	
8590	0	37442	
8591	0	37300	
8592	0	37324	
8593	0	37512	
