# OpenSignals Text File Format. Version 1
# {"00:07:80:0F:31:47": {"position": 0, "device": "biosignalsplux", "device name": "00:07:80:0F:31:47", "device connection": "BTH00:07:80:0F:31:47", "sampling rate": 1000, "resolution": [16], "firmware version": 775, "comments": "", "keywords": "", "mode": 0, "sync interval": 2, "date": "2023-2-6", "time": "10:54:25.312", "channels": [1], "sensor": ["ECG"], "label": ["CH1"], "column": ["nSeq", "DI", "CH1"], "special": [{"SpO2": [80, 40, 5, 4, 3, 3]}, {"SpO2": [80, 40, 5, 4, 3, 3]}, {"SpO2": [80, 40, 5, 4, 3, 3]}, {"SpO2": [80, 40, 5, 4, 3, 3]}, {"SpO2": [80, 40, 5, 4, 3, 3]}, {"SpO2": [80, 40, 5, 4, 3, 3]}, {"SpO2": [80, 40, 5, 4, 3, 3]}, {"SpO2": [80, 40, 5, 4, 3, 3]}], "digital IO": [0, 1], "sleeve color": [""]}}
# EndOfHeader
0	0	31544	
1	0	31640	
2	0	31792	
3	0	31932	
4	0	31944	
5	0	31944	
6	0	31916	
7	0	31848	
8	0	31844	
9	0	31868	
10	0	31944	
11	0	32078	
12	0	32216	
13	0	32260	
14	0	32292	
15	0	32200	
16	0	31896	
17	0	31608	
18	0	31404	
19	0	31376	
20	0	31476	
21	0	31632	
22	0	31788	
23	0	31820	
24	0	31808	
25	0	31944	
26	0	32048	
27	0	31960	
28	0	31876	
29	0	32016	
30	0	32128	
31	0	32252	
32	0	32332	
33	0	32360	
34	0	32264	
35	0	32056	
36	0	31924	
37	0	31904	
38	0	31744	
39	0	31652	
40	0	31720	
41	0	31872	
42	0	31936	
43	0	31868	
44	0	31900	
45	0	32004	
46	0	32072	
47	0	32064	
48	0	32124	
49	0	32200	
50	0	32296	
51	0	32368	
52	0	32436	
53	0	32472	
54	0	32416	
55	0	32300	
56	0	32160	
57	0	31976	
58	0	31796	
59	0	31888	
60	0	32024	
61	0	32092	
62	0	32144	
63	0	32216	
64	0	32314	
65	0	32352	
66	0	32228	
67	0	32080	
68	0	32032	
69	0	32106	
70	0	32232	
71	0	32340	
72	0	32312	
73	0	32344	
74	0	32456	
75	0	32464	
76	0	32304	
77	0	32072	
78	0	31920	
79	0	31856	
80	0	31880	
81	0	31984	
82	0	32104	
83	0	32200	
84	0	32192	
85	0	32136	
86	0	32036	
87	0	32040	
88	0	32048	
89	0	32132	
90	0	32305	
91	0	32504	
92	0	32568	
93	0	32506	
94	0	32428	
95	0	32304	
96	0	32192	
97	0	32096	
98	0	31852	
99	0	31648	
100	0	31732	
101	0	31948	
102	0	32152	
103	0	32352	
104	0	32428	
105	0	32314	
106	0	32100	
107	0	32034	
108	0	32072	
109	0	32164	
110	0	32228	
111	0	32396	
112	0	32652	
113	0	32776	
114	0	32706	
115	0	32520	
116	0	32336	
117	0	32160	
118	0	31988	
119	0	32072	
120	0	32292	
121	0	32452	
122	0	32480	
123	0	32516	
124	0	32472	
125	0	32396	
126	0	32320	
127	0	32252	
128	0	32196	
129	0	32228	
130	0	32280	
131	0	32272	
132	0	32320	
133	0	32380	
134	0	32376	
135	0	32320	
136	0	32228	
137	0	32036	
138	0	31922	
139	0	31840	
140	0	31940	
141	0	32256	
142	0	32488	
143	0	32520	
144	0	32588	
145	0	32640	
146	0	32522	
147	0	32412	
148	0	32410	
149	0	32484	
150	0	32624	
151	0	32784	
152	0	32796	
153	0	32776	
154	0	32792	
155	0	32752	
156	0	32532	
157	0	32284	
158	0	32052	
159	0	31960	
160	0	32052	
161	0	32220	
162	0	32364	
163	0	32418	
164	0	32500	
165	0	32564	
166	0	32604	
167	0	32632	
168	0	32668	
169	0	32636	
170	0	32664	
171	0	32752	
172	0	32816	
173	0	32840	
174	0	32752	
175	0	32736	
176	0	32640	
177	0	32376	
178	0	32256	
179	0	32264	
180	0	32324	
181	0	32376	
182	0	32496	
183	0	32580	
184	0	32736	
185	0	32904	
186	0	32840	
187	0	32608	
188	0	32448	
189	0	32404	
190	0	32528	
191	0	32592	
192	0	32744	
193	0	32828	
194	0	32796	
195	0	32754	
196	0	32552	
197	0	32336	
198	0	32180	
199	0	32136	
200	0	32186	
201	0	32332	
202	0	32520	
203	0	32556	
204	0	32584	
205	0	32552	
206	0	32480	
207	0	32484	
208	0	32596	
209	0	32724	
210	0	32840	
211	0	32896	
212	0	32860	
213	0	32736	
214	0	32628	
215	0	32756	
216	0	32930	
217	0	32828	
218	0	32570	
219	0	32468	
220	0	32428	
221	0	32488	
222	0	32666	
223	0	32806	
224	0	32824	
225	0	32796	
226	0	32728	
227	0	32664	
228	0	32728	
229	0	32888	
230	0	33008	
231	0	33028	
232	0	33029	
233	0	33064	
234	0	33008	
235	0	32926	
236	0	32826	
237	0	32664	
238	0	32556	
239	0	32648	
240	0	32696	
241	0	32720	
242	0	32828	
243	0	32812	
244	0	32820	
245	0	32864	
246	0	32820	
247	0	32728	
248	0	32618	
249	0	32596	
250	0	32712	
251	0	32880	
252	0	32936	
253	0	32936	
254	0	32864	
255	0	32820	
256	0	32736	
257	0	32528	
258	0	32416	
259	0	32464	
260	0	32548	
261	0	32640	
262	0	32728	
263	0	32796	
264	0	32848	
265	0	32892	
266	0	32876	
267	0	32720	
268	0	32736	
269	0	32856	
270	0	32988	
271	0	33164	
272	0	33268	
273	0	33328	
274	0	33312	
275	0	33244	
276	0	33280	
277	0	33280	
278	0	33164	
279	0	33128	
280	0	33192	
281	0	33244	
282	0	33232	
283	0	33240	
284	0	33210	
285	0	33212	
286	0	33192	
287	0	33124	
288	0	33016	
289	0	32996	
290	0	33130	
291	0	33236	
292	0	33348	
293	0	33420	
294	0	33448	
295	0	33448	
296	0	33368	
297	0	33257	
298	0	33224	
299	0	33300	
300	0	33376	
301	0	33504	
302	0	33728	
303	0	33956	
304	0	34048	
305	0	34032	
306	0	33980	
307	0	33904	
308	0	33908	
309	0	34052	
310	0	34300	
311	0	34556	
312	0	34672	
313	0	34688	
314	0	34640	
315	0	34600	
316	0	34544	
317	0	34432	
318	0	34236	
319	0	34104	
320	0	33976	
321	0	33960	
322	0	33968	
323	0	33904	
324	0	33896	
325	0	33812	
326	0	33820	
327	0	33740	
328	0	33524	
329	0	33348	
330	0	33276	
331	0	33256	
332	0	33308	
333	0	33304	
334	0	33136	
335	0	33065	
336	0	33040	
337	0	32980	
338	0	32984	
339	0	32992	
340	0	32968	
341	0	32906	
342	0	32756	
343	0	32648	
344	0	32616	
345	0	32572	
346	0	32496	
347	0	32372	
348	0	32216	
349	0	32168	
350	0	32260	
351	0	32392	
352	0	32498	
353	0	32468	
354	0	32356	
355	0	32344	
356	0	32252	
357	0	32160	
358	0	32104	
359	0	32176	
360	0	32320	
361	0	32416	
362	0	32456	
363	0	32472	
364	0	32476	
365	0	32376	
366	0	32272	
367	0	32150	
368	0	32140	
369	0	32156	
370	0	32276	
371	0	32360	
372	0	32456	
373	0	32572	
374	0	32604	
375	0	32532	
376	0	32408	
377	0	32280	
378	0	32124	
379	0	31978	
380	0	32032	
381	0	32128	
382	0	32176	
383	0	32208	
384	0	32252	
385	0	32284	
386	0	32186	
387	0	32112	
388	0	32096	
389	0	32164	
390	0	32304	
391	0	32428	
392	0	32500	
393	0	32424	
394	0	32336	
395	0	32392	
396	0	32476	
397	0	32332	
398	0	32192	
399	0	32232	
400	0	32348	
401	0	32420	
402	0	32520	
403	0	32604	
404	0	32690	
405	0	32672	
406	0	32648	
407	0	32708	
408	0	32696	
409	0	32764	
410	0	32890	
411	0	32952	
412	0	32961	
413	0	32960	
414	0	33008	
415	0	33084	
416	0	33224	
417	0	33292	
418	0	33360	
419	0	33424	
420	0	33536	
421	0	33656	
422	0	33864	
423	0	34116	
424	0	34240	
425	0	34424	
426	0	34736	
427	0	35016	
428	0	35228	
429	0	35544	
430	0	35936	
431	0	36328	
432	0	36724	
433	0	36864	
434	0	36864	
435	0	37140	
436	0	37584	
437	0	38016	
438	0	38536	
439	0	39200	
440	0	39928	
441	0	40464	
442	0	40720	
443	0	40580	
444	0	40208	
445	0	39644	
446	0	38876	
447	0	37912	
448	0	37160	
449	0	36728	
450	0	36394	
451	0	36112	
452	0	35930	
453	0	35734	
454	0	35416	
455	0	35100	
456	0	34800	
457	0	34480	
458	0	34164	
459	0	33904	
460	0	33776	
461	0	33826	
462	0	33920	
463	0	33925	
464	0	33812	
465	0	33696	
466	0	33600	
467	0	33464	
468	0	33276	
469	0	33120	
470	0	32872	
471	0	32672	
472	0	32560	
473	0	32536	
474	0	32368	
475	0	32104	
476	0	31912	
477	0	31736	
478	0	31696	
479	0	31784	
480	0	31924	
481	0	31996	
482	0	32124	
483	0	32172	
484	0	32144	
485	0	32024	
486	0	31856	
487	0	31708	
488	0	31704	
489	0	31836	
490	0	32096	
491	0	32264	
492	0	32244	
493	0	32136	
494	0	32128	
495	0	31992	
496	0	31784	
497	0	31592	
498	0	31508	
499	0	31586	
500	0	31776	
501	0	31944	
502	0	31944	
503	0	32008	
504	0	32092	
505	0	32008	
506	0	31880	
507	0	31808	
508	0	31808	
509	0	31908	
510	0	32008	
511	0	32128	
512	0	32324	
513	0	32432	
514	0	32356	
515	0	32236	
516	0	32044	
517	0	31840	
518	0	31720	
519	0	31764	
520	0	31828	
521	0	31886	
522	0	31960	
523	0	32068	
524	0	32128	
525	0	32100	
526	0	31968	
527	0	31876	
528	0	31908	
529	0	32052	
530	0	32176	
531	0	32272	
532	0	32380	
533	0	32488	
534	0	32536	
535	0	32548	
536	0	32416	
537	0	32168	
538	0	31936	
539	0	31800	
540	0	31848	
541	0	31968	
542	0	32020	
543	0	32090	
544	0	32216	
545	0	32328	
546	0	32382	
547	0	32368	
548	0	32440	
549	0	32556	
550	0	32648	
551	0	32812	
552	0	32848	
553	0	32904	
554	0	32944	
555	0	32856	
556	0	32664	
557	0	32456	
558	0	32306	
559	0	32264	
560	0	32296	
561	0	32372	
562	0	32388	
563	0	32424	
564	0	32528	
565	0	32660	
566	0	32728	
567	0	32712	
568	0	32788	
569	0	32908	
570	0	32924	
571	0	32864	
572	0	32904	
573	0	33002	
574	0	32890	
575	0	32714	
576	0	32544	
577	0	32392	
578	0	32344	
579	0	32440	
580	0	32556	
581	0	32608	
582	0	32672	
583	0	32856	
584	0	33020	
585	0	33060	
586	0	32964	
587	0	32848	
588	0	32712	
589	0	32700	
590	0	32900	
591	0	33114	
592	0	33276	
593	0	33360	
594	0	33324	
595	0	33204	
596	0	32960	
597	0	32616	
598	0	32444	
599	0	32554	
600	0	32732	
601	0	32846	
602	0	32892	
603	0	32928	
604	0	32976	
605	0	33124	
606	0	33244	
607	0	33310	
608	0	33504	
609	0	33728	
610	0	33876	
611	0	34016	
612	0	34080	
613	0	34096	
614	0	34072	
615	0	33904	
616	0	33588	
617	0	33276	
618	0	33008	
619	0	32896	
620	0	32920	
621	0	33024	
622	0	33200	
623	0	33154	
624	0	33052	
625	0	33020	
626	0	32952	
627	0	32784	
628	0	32704	
629	0	32704	
630	0	32752	
631	0	32866	
632	0	33048	
633	0	33264	
634	0	33520	
635	0	33632	
636	0	33572	
637	0	33396	
638	0	33288	
639	0	33256	
640	0	33344	
641	0	33376	
642	0	33284	
643	0	33072	
644	0	33016	
645	0	33096	
646	0	33196	
647	0	33184	
648	0	33048	
649	0	32932	
650	0	32884	
651	0	32908	
652	0	32936	
653	0	32924	
654	0	32960	
655	0	33056	
656	0	33184	
657	0	33208	
658	0	33296	
659	0	33448	
660	0	33772	
661	0	34018	
662	0	34140	
663	0	34172	
664	0	34168	
665	0	34216	
666	0	34272	
667	0	34276	
668	0	34304	
669	0	34432	
670	0	34680	
671	0	35044	
672	0	35332	
673	0	35444	
674	0	35396	
675	0	35328	
676	0	35192	
677	0	35040	
678	0	34976	
679	0	35016	
680	0	35176	
681	0	35320	
682	0	35328	
683	0	35200	
684	0	35112	
685	0	35036	
686	0	34832	
687	0	34528	
688	0	34340	
689	0	34232	
690	0	34241	
691	0	34312	
692	0	34372	
693	0	34324	
694	0	34040	
695	0	33684	
696	0	33400	
697	0	33040	
698	0	32794	
699	0	32560	
700	0	32472	
701	0	32760	
702	0	33328	
703	0	33948	
704	0	34680	
705	0	35228	
706	0	35578	
707	0	35984	
708	0	36516	
709	0	36920	
710	0	37012	
711	0	37268	
712	0	37628	
713	0	37876	
714	0	38228	
715	0	38556	
716	0	38688	
717	0	38388	
718	0	37736	
719	0	37112	
720	0	36752	
721	0	36380	
722	0	35608	
723	0	34426	
724	0	33197	
725	0	32048	
726	0	31280	
727	0	30764	
728	0	30240	
729	0	29824	
730	0	29672	
731	0	29496	
732	0	29416	
733	0	29496	
734	0	29528	
735	0	29752	
736	0	30192	
737	0	30654	
738	0	31148	
739	0	31532	
740	0	31636	
741	0	31760	
742	0	32112	
743	0	32516	
744	0	33022	
745	0	33568	
746	0	33704	
747	0	33392	
748	0	32672	
749	0	31962	
750	0	31284	
751	0	30468	
752	0	29112	
753	0	27534	
754	0	26164	
755	0	25192	
756	0	24580	
757	0	24152	
758	0	23916	
759	0	23930	
760	0	24286	
761	0	24924	
762	0	25834	
763	0	27084	
764	0	28560	
765	0	29980	
766	0	31152	
767	0	32128	
768	0	32940	
769	0	33600	
770	0	33820	
771	0	33736	
772	0	33552	
773	0	33552	
774	0	34120	
775	0	34792	
776	0	35220	
777	0	35408	
778	0	35080	
779	0	34356	
780	0	33496	
781	0	32660	
782	0	31604	
783	0	30168	
784	0	28593	
785	0	27232	
786	0	26158	
787	0	25320	
788	0	25102	
789	0	25644	
790	0	26268	
791	0	26964	
792	0	27664	
793	0	28768	
794	0	30224	
795	0	32076	
796	0	33916	
797	0	35384	
798	0	36424	
799	0	36980	
800	0	36880	
801	0	35768	
802	0	34024	
803	0	32160	
804	0	30618	
805	0	29520	
806	0	28930	
807	0	28840	
808	0	29408	
809	0	30376	
810	0	31422	
811	0	32248	
812	0	33088	
813	0	33844	
814	0	34416	
815	0	34696	
816	0	34644	
817	0	34332	
818	0	33760	
819	0	32812	
820	0	31480	
821	0	30132	
822	0	29264	
823	0	28396	
824	0	27512	
825	0	26900	
826	0	26576	
827	0	26928	
828	0	27952	
829	0	29124	
830	0	29952	
831	0	30768	
832	0	31788	
833	0	32668	
834	0	33656	
835	0	34784	
836	0	35824	
837	0	36496	
838	0	36968	
839	0	37244	
840	0	37498	
841	0	37388	
842	0	37064	
843	0	36368	
844	0	35272	
845	0	34448	
846	0	33706	
847	0	33032	
848	0	32464	
849	0	31696	
850	0	30844	
851	0	30180	
852	0	29497	
853	0	28972	
854	0	28808	
855	0	29144	
856	0	29980	
857	0	30944	
858	0	31708	
859	0	32440	
860	0	33148	
861	0	34044	
862	0	35300	
863	0	36244	
864	0	36756	
865	0	36568	
866	0	35640	
867	0	34316	
868	0	32736	
869	0	31032	
870	0	29402	
871	0	27724	
872	0	26290	
873	0	25488	
874	0	25264	
875	0	25776	
876	0	27228	
877	0	29016	
878	0	30572	
879	0	31900	
880	0	33232	
881	0	34528	
882	0	35684	
883	0	36432	
884	0	36772	
885	0	36952	
886	0	37120	
887	0	37016	
888	0	36880	
889	0	36608	
890	0	35936	
891	0	34808	
892	0	33520	
893	0	32656	
894	0	32576	
895	0	32744	
896	0	33116	
897	0	33280	
898	0	33048	
899	0	33160	
900	0	33596	
901	0	34136	
902	0	34424	
903	0	34560	
904	0	34512	
905	0	34304	
906	0	34104	
907	0	34008	
908	0	33704	
909	0	33132	
910	0	32640	
911	0	32244	
912	0	31872	
913	0	31352	
914	0	30756	
915	0	30316	
916	0	30632	
917	0	31656	
918	0	32560	
919	0	32812	
920	0	32216	
921	0	31136	
922	0	29702	
923	0	28280	
924	0	26944	
925	0	25522	
926	0	22525	
927	0	18024	
928	0	13744	
929	0	11166	
930	0	10126	
931	0	11002	
932	0	13900	
933	0	17472	
934	0	20688	
935	0	23948	
936	0	28296	
937	0	34060	
938	0	40812	
939	0	47000	
940	0	51936	
941	0	54672	
942	0	55380	
943	0	55176	
944	0	54888	
945	0	54360	
946	0	53176	
947	0	51004	
948	0	48704	
949	0	46648	
950	0	44912	
951	0	42892	
952	0	40544	
953	0	37880	
954	0	35056	
955	0	32762	
956	0	31252	
957	0	30634	
958	0	30504	
959	0	30480	
960	0	30490	
961	0	30488	
962	0	30296	
963	0	29754	
964	0	29128	
965	0	28240	
966	0	26940	
967	0	26000	
968	0	25204	
969	0	24528	
970	0	24144	
971	0	24240	
972	0	25288	
973	0	27092	
974	0	29096	
975	0	30648	
976	0	30988	
977	0	29964	
978	0	27932	
979	0	25166	
980	0	21932	
981	0	18964	
982	0	16804	
983	0	15406	
984	0	14848	
985	0	15082	
986	0	16304	
987	0	18796	
988	0	21618	
989	0	24158	
990	0	26604	
991	0	28238	
992	0	29280	
993	0	30488	
994	0	31668	
995	0	32810	
996	0	34140	
997	0	36106	
998	0	38324	
999	0	40160	
1000	0	41768	
1001	0	42968	
1002	0	43840	
1003	0	44644	
1004	0	44704	
1005	0	42820	
1006	0	39652	
1007	0	36472	
1008	0	33512	
1009	0	31116	
1010	0	29465	
1011	0	28884	
1012	0	30148	
1013	0	32436	
1014	0	35116	
1015	0	37420	
1016	0	40116	
1017	0	42472	
1018	0	45272	
1019	0	48680	
1020	0	51696	
1021	0	53292	
1022	0	53168	
1023	0	51552	
1024	0	49160	
1025	0	46208	
1026	0	42320	
1027	0	37504	
1028	0	32596	
1029	0	28288	
1030	0	24868	
1031	0	21640	
1032	0	18256	
1033	0	14804	
1034	0	11142	
1035	0	7306	
1036	0	4461	
1037	0	3328	
1038	0	4536	
1039	0	8124	
1040	0	13376	
1041	0	19058	
1042	0	24960	
1043	0	30612	
1044	0	35468	
1045	0	39000	
1046	0	41336	
1047	0	43116	
1048	0	44360	
1049	0	44512	
1050	0	43000	
1051	0	39444	
1052	0	34964	
1053	0	30164	
1054	0	24816	
1055	0	18340	
1056	0	11068	
1057	0	6509	
1058	0	4129	
1059	0	2920	
1060	0	2344	
1061	0	5226	
1062	0	11040	
1063	0	16428	
1064	0	22160	
1065	0	28676	
1066	0	34276	
1067	0	38156	
1068	0	39864	
1069	0	40160	
1070	0	40288	
1071	0	41648	
1072	0	43712	
1073	0	45624	
1074	0	47012	
1075	0	48616	
1076	0	50956	
1077	0	53164	
1078	0	53056	
1079	0	50192	
1080	0	45336	
1081	0	39832	
1082	0	34800	
1083	0	30516	
1084	0	26208	
1085	0	23070	
1086	0	22704	
1087	0	24652	
1088	0	27616	
1089	0	30840	
1090	0	34044	
1091	0	36900	
1092	0	39168	
1093	0	40784	
1094	0	41416	
1095	0	40956	
1096	0	40304	
1097	0	39640	
1098	0	38672	
1099	0	36700	
1100	0	33928	
1101	0	31320	
1102	0	29388	
1103	0	28256	
1104	0	27448	
1105	0	25676	
1106	0	22736	
1107	0	20004	
1108	0	17224	
1109	0	13244	
1110	0	8364	
1111	0	5248	
1112	0	5440	
1113	0	9644	
1114	0	15780	
1115	0	24320	
1116	0	33522	
1117	0	42180	
1118	0	47476	
1119	0	49268	
1120	0	47928	
1121	0	44320	
1122	0	40344	
1123	0	37600	
1124	0	36136	
1125	0	36044	
1126	0	37976	
1127	0	41120	
1128	0	44192	
1129	0	45876	
1130	0	46616	
1131	0	46032	
1132	0	43636	
1133	0	39724	
1134	0	34756	
1135	0	29652	
1136	0	25876	
1137	0	23432	
1138	0	23108	
1139	0	25572	
1140	0	27996	
1141	0	29440	
1142	0	30320	
1143	0	31092	
1144	0	31800	
1145	0	32416	
1146	0	32888	
1147	0	33264	
1148	0	33336	
1149	0	31092	
1150	0	27704	
1151	0	22944	
1152	0	18716	
1153	0	16481	
1154	0	17144	
1155	0	19840	
1156	0	23920	
1157	0	30180	
1158	0	36424	
1159	0	41868	
1160	0	44336	
1161	0	45016	
1162	0	44626	
1163	0	43396	
1164	0	41636	
1165	0	39192	
1166	0	35028	
1167	0	30116	
1168	0	26844	
1169	0	25976	
1170	0	25928	
1171	0	26432	
1172	0	29056	
1173	0	33912	
1174	0	39272	
1175	0	43160	
1176	0	45732	
1177	0	47648	
1178	0	48020	
1179	0	46496	
1180	0	43048	
1181	0	37976	
1182	0	32220	
1183	0	25668	
1184	0	18968	
1185	0	12348	
1186	0	7436	
1187	0	4756	
1188	0	3379	
1189	0	2702	
1190	0	2400	
1191	0	2284	
1192	0	8348	
1193	0	15980	
1194	0	24036	
1195	0	32928	
1196	0	42792	
1197	0	51584	
1198	0	58288	
1199	0	62032	
1200	0	64080	
1201	0	59076	
1202	0	50832	
1203	0	42692	
1204	0	34416	
1205	0	25388	
1206	0	18300	
1207	0	15144	
1208	0	14885	
1209	0	16748	
1210	0	21700	
1211	0	28396	
1212	0	34028	
1213	0	36520	
1214	0	36072	
1215	0	34266	
1216	0	31901	
1217	0	28724	
1218	0	25312	
1219	0	22700	
1220	0	21122	
1221	0	19228	
1222	0	18476	
1223	0	19978	
1224	0	22684	
1225	0	25408	
1226	0	28500	
1227	0	31344	
1228	0	30568	
1229	0	26984	
1230	0	22372	
1231	0	19480	
1232	0	20452	
1233	0	22708	
1234	0	25400	
1235	0	30480	
1236	0	35756	
1237	0	40512	
1238	0	45524	
1239	0	48776	
1240	0	50480	
1241	0	47732	
1242	0	41324	
1243	0	35252	
1244	0	29504	
1245	0	26650	
1246	0	24436	
1247	0	23388	
1248	0	23960	
1249	0	24792	
1250	0	26392	
1251	0	28436	
1252	0	29093	
1253	0	28920	
1254	0	27468	
1255	0	24196	
1256	0	20340	
1257	0	16873	
1258	0	15340	
1259	0	15354	
1260	0	16592	
1261	0	18280	
1262	0	23108	
1263	0	30616	
1264	0	38008	
1265	0	42500	
1266	0	42784	
1267	0	41420	
1268	0	40688	
1269	0	39592	
1270	0	38228	
1271	0	40536	
1272	0	43676	
1273	0	44132	
1274	0	42568	
1275	0	40980	
1276	0	39240	
1277	0	36808	
1278	0	33168	
1279	0	31216	
1280	0	32520	
1281	0	34768	
1282	0	36768	
1283	0	37516	
1284	0	34628	
1285	0	30960	
1286	0	28506	
1287	0	27084	
1288	0	26936	
1289	0	31288	
1290	0	40404	
1291	0	48420	
1292	0	52688	
1293	0	53732	
1294	0	52120	
1295	0	47444	
1296	0	40344	
1297	0	33656	
1298	0	29676	
1299	0	26896	
1300	0	24988	
1301	0	23948	
1302	0	21588	
1303	0	18400	
1304	0	14828	
1305	0	11986	
1306	0	12384	
1307	0	15618	
1308	0	19650	
1309	0	24464	
1310	0	28288	
1311	0	30684	
1312	0	31704	
1313	0	32984	
1314	0	35296	
1315	0	38816	
1316	0	43932	
1317	0	50936	
1318	0	56660	
1319	0	59316	
1320	0	58272	
1321	0	55532	
1322	0	49112	
1323	0	37568	
1324	0	22428	
1325	0	13052	
1326	0	8116	
1327	0	5505	
1328	0	4152	
1329	0	4806	
1330	0	15608	
1331	0	26732	
1332	0	37226	
1333	0	45736	
1334	0	50944	
1335	0	55080	
1336	0	57152	
1337	0	56184	
1338	0	53420	
1339	0	49876	
1340	0	46984	
1341	0	44884	
1342	0	42800	
1343	0	39920	
1344	0	36032	
1345	0	31536	
1346	0	26392	
1347	0	21284	
1348	0	18636	
1349	0	19188	
1350	0	21456	
1351	0	23360	
1352	0	24890	
1353	0	25516	
1354	0	24800	
1355	0	23324	
1356	0	22010	
1357	0	20408	
1358	0	19040	
1359	0	19336	
1360	0	20624	
1361	0	24776	
1362	0	30784	
1363	0	37428	
1364	0	44060	
1365	0	48332	
1366	0	49612	
1367	0	48348	
1368	0	47196	
1369	0	46608	
1370	0	45224	
1371	0	41600	
1372	0	37265	
1373	0	33816	
1374	0	33116	
1375	0	34712	
1376	0	34464	
1377	0	30848	
1378	0	25656	
1379	0	21500	
1380	0	18676	
1381	0	16074	
1382	0	15197	
1383	0	15172	
1384	0	16324	
1385	0	19644	
1386	0	23524	
1387	0	28808	
1388	0	35248	
1389	0	41656	
1390	0	46608	
1391	0	48080	
1392	0	46528	
1393	0	44780	
1394	0	44652	
1395	0	44816	
1396	0	43712	
1397	0	41428	
1398	0	38640	
1399	0	36004	
1400	0	34032	
1401	0	31916	
1402	0	31568	
1403	0	32260	
1404	0	32548	
1405	0	31520	
1406	0	30072	
1407	0	28664	
1408	0	27340	
1409	0	27576	
1410	0	29732	
1411	0	32952	
1412	0	35908	
1413	0	36248	
1414	0	34340	
1415	0	31644	
1416	0	30522	
1417	0	30564	
1418	0	31984	
1419	0	35192	
1420	0	37720	
1421	0	38516	
1422	0	36864	
1423	0	33812	
1424	0	30820	
1425	0	29386	
1426	0	29228	
1427	0	30996	
1428	0	36752	
1429	0	43384	
1430	0	46904	
1431	0	46872	
1432	0	44432	
1433	0	40636	
1434	0	37172	
1435	0	33848	
1436	0	31088	
1437	0	30504	
1438	0	32184	
1439	0	33764	
1440	0	34552	
1441	0	34216	
1442	0	33412	
1443	0	31392	
1444	0	27520	
1445	0	22888	
1446	0	19720	
1447	0	18716	
1448	0	20116	
1449	0	24198	
1450	0	30610	
1451	0	38656	
1452	0	45248	
1453	0	47944	
1454	0	46528	
1455	0	42632	
1456	0	37288	
1457	0	32016	
1458	0	28426	
1459	0	26688	
1460	0	24970	
1461	0	23092	
1462	0	22880	
1463	0	25088	
1464	0	28960	
1465	0	33460	
1466	0	37968	
1467	0	40084	
1468	0	41816	
1469	0	44232	
1470	0	45680	
1471	0	42712	
1472	0	38128	
1473	0	34152	
1474	0	31180	
1475	0	29890	
1476	0	31196	
1477	0	34072	
1478	0	37768	
1479	0	43104	
1480	0	47368	
1481	0	48084	
1482	0	44264	
1483	0	38084	
1484	0	32284	
1485	0	28176	
1486	0	25632	
1487	0	23640	
1488	0	22380	
1489	0	20809	
1490	0	20446	
1491	0	21684	
1492	0	23388	
1493	0	26124	
1494	0	29964	
1495	0	34208	
1496	0	38860	
1497	0	44592	
1498	0	49276	
1499	0	51520	
1500	0	52256	
1501	0	49504	
1502	0	43876	
1503	0	37720	
1504	0	32812	
1505	0	30760	
1506	0	32152	
1507	0	35844	
1508	0	39888	
1509	0	43208	
1510	0	42764	
1511	0	39460	
1512	0	37128	
1513	0	34992	
1514	0	33020	
1515	0	32980	
1516	0	33998	
1517	0	33308	
1518	0	31640	
1519	0	30696	
1520	0	31120	
1521	0	33132	
1522	0	36056	
1523	0	39692	
1524	0	44264	
1525	0	46352	
1526	0	43500	
1527	0	37716	
1528	0	31380	
1529	0	24942	
1530	0	17924	
1531	0	16196	
1532	0	19618	
1533	0	25104	
1534	0	29856	
1535	0	34508	
1536	0	38608	
1537	0	40888	
1538	0	42124	
1539	0	41564	
1540	0	38832	
1541	0	34596	
1542	0	31872	
1543	0	30600	
1544	0	30370	
1545	0	30604	
1546	0	32792	
1547	0	39136	
1548	0	47376	
1549	0	52384	
1550	0	53376	
1551	0	52088	
1552	0	48928	
1553	0	46120	
1554	0	43716	
1555	0	40920	
1556	0	38576	
1557	0	37992	
1558	0	37144	
1559	0	33460	
1560	0	29368	
1561	0	25137	
1562	0	20764	
1563	0	16661	
1564	0	12813	
1565	0	11224	
1566	0	13973	
1567	0	19808	
1568	0	26548	
1569	0	34452	
1570	0	43024	
1571	0	50640	
1572	0	55700	
1573	0	57248	
1574	0	55188	
1575	0	52904	
1576	0	49040	
1577	0	43316	
1578	0	36568	
1579	0	30616	
1580	0	26108	
1581	0	23236	
1582	0	21228	
1583	0	18968	
1584	0	16836	
1585	0	15433	
1586	0	15461	
1587	0	16124	
1588	0	17044	
1589	0	17788	
1590	0	21684	
1591	0	27649	
1592	0	32636	
1593	0	37340	
1594	0	41056	
1595	0	42456	
1596	0	41680	
1597	0	38976	
1598	0	35072	
1599	0	31912	
1600	0	32040	
1601	0	33876	
1602	0	36672	
1603	0	40260	
1604	0	42356	
1605	0	41608	
1606	0	39616	
1607	0	36644	
1608	0	32320	
1609	0	28108	
1610	0	23868	
1611	0	19628	
1612	0	15856	
1613	0	12264	
1614	0	10921	
1615	0	13416	
1616	0	18624	
1617	0	23852	
1618	0	28962	
1619	0	34844	
1620	0	41208	
1621	0	45008	
1622	0	46592	
1623	0	45436	
1624	0	43564	
1625	0	43448	
1626	0	42944	
1627	0	41300	
1628	0	38096	
1629	0	34612	
1630	0	30836	
1631	0	26844	
1632	0	23792	
1633	0	22400	
1634	0	22165	
1635	0	23176	
1636	0	24096	
1637	0	24904	
1638	0	26440	
1639	0	29288	
1640	0	33628	
1641	0	36932	
1642	0	38136	
1643	0	37616	
1644	0	36656	
1645	0	35320	
1646	0	33512	
1647	0	31340	
1648	0	29792	
1649	0	29092	
1650	0	29592	
1651	0	31620	
1652	0	34996	
1653	0	38016	
1654	0	39244	
1655	0	39168	
1656	0	37876	
1657	0	35456	
1658	0	32516	
1659	0	29304	
1660	0	26190	
1661	0	24340	
1662	0	25526	
1663	0	28796	
1664	0	32552	
1665	0	36148	
1666	0	39128	
1667	0	40560	
1668	0	39608	
1669	0	39304	
1670	0	37616	
1671	0	35208	
1672	0	33488	
1673	0	33496	
1674	0	35588	
1675	0	37500	
1676	0	38748	
1677	0	39880	
1678	0	39660	
1679	0	36740	
1680	0	31560	
1681	0	27280	
1682	0	24488	
1683	0	22488	
1684	0	21344	
1685	0	21557	
1686	0	22978	
1687	0	25244	
1688	0	26048	
1689	0	25768	
1690	0	26496	
1691	0	28420	
1692	0	30308	
1693	0	31376	
1694	0	33664	
1695	0	37068	
1696	0	37584	
1697	0	34148	
1698	0	29600	
1699	0	26124	
1700	0	25104	
1701	0	27888	
1702	0	34208	
1703	0	41632	
1704	0	45472	
1705	0	44132	
1706	0	38520	
1707	0	32396	
1708	0	28068	
1709	0	26448	
1710	0	26968	
1711	0	29376	
1712	0	32836	
1713	0	36676	
1714	0	39512	
1715	0	38520	
1716	0	34336	
1717	0	29556	
1718	0	26728	
1719	0	24848	
1720	0	22784	
1721	0	21732	
1722	0	21784	
1723	0	21660	
1724	0	22820	
1725	0	25472	
1726	0	29576	
1727	0	33888	
1728	0	38024	
1729	0	42016	
1730	0	44732	
1731	0	44760	
1732	0	42328	
1733	0	38240	
1734	0	34128	
1735	0	31564	
1736	0	31856	
1737	0	33300	
1738	0	36192	
1739	0	40632	
1740	0	44020	
1741	0	45272	
1742	0	45500	
1743	0	43736	
1744	0	40744	
1745	0	38412	
1746	0	37608	
1747	0	36208	
1748	0	34568	
1749	0	32920	
1750	0	29740	
1751	0	25388	
1752	0	21576	
1753	0	19032	
1754	0	17600	
1755	0	17297	
1756	0	20293	
1757	0	25568	
1758	0	31400	
1759	0	36248	
1760	0	38712	
1761	0	41720	
1762	0	44240	
1763	0	44170	
1764	0	40968	
1765	0	36692	
1766	0	33460	
1767	0	31796	
1768	0	29648	
1769	0	28624	
1770	0	29520	
1771	0	30200	
1772	0	29204	
1773	0	29848	
1774	0	31176	
1775	0	31728	
1776	0	31812	
1777	0	31940	
1778	0	31744	
1779	0	31140	
1780	0	32652	
1781	0	35840	
1782	0	38858	
1783	0	41128	
1784	0	42560	
1785	0	42808	
1786	0	41112	
1787	0	35708	
1788	0	28004	
1789	0	22078	
1790	0	17140	
1791	0	14182	
1792	0	13588	
1793	0	16196	
1794	0	21284	
1795	0	27332	
1796	0	32768	
1797	0	36976	
1798	0	40732	
1799	0	42458	
1800	0	43116	
1801	0	43484	
1802	0	43008	
1803	0	41522	
1804	0	38328	
1805	0	34784	
1806	0	29944	
1807	0	25258	
1808	0	22544	
1809	0	21912	
1810	0	23776	
1811	0	27990	
1812	0	33544	
1813	0	39208	
1814	0	43688	
1815	0	45820	
1816	0	44384	
1817	0	40144	
1818	0	35628	
1819	0	31440	
1820	0	29376	
1821	0	29640	
1822	0	33688	
1823	0	37932	
1824	0	40572	
1825	0	40624	
1826	0	38280	
1827	0	34844	
1828	0	29738	
1829	0	25476	
1830	0	24184	
1831	0	26340	
1832	0	29176	
1833	0	30512	
1834	0	30180	
1835	0	29792	
1836	0	29796	
1837	0	30292	
1838	0	32884	
1839	0	35632	
1840	0	37632	
1841	0	36568	
1842	0	32672	
1843	0	28384	
1844	0	25608	
1845	0	24356	
1846	0	26604	
1847	0	30824	
1848	0	33664	
1849	0	34954	
1850	0	35640	
1851	0	35760	
1852	0	35072	
1853	0	33980	
1854	0	33984	
1855	0	33808	
1856	0	32136	
1857	0	31296	
1858	0	32492	
1859	0	34044	
1860	0	36238	
1861	0	39376	
1862	0	42864	
1863	0	44600	
1864	0	43600	
1865	0	41144	
1866	0	38004	
1867	0	34640	
1868	0	30820	
1869	0	28652	
1870	0	27272	
1871	0	25928	
1872	0	24788	
1873	0	23436	
1874	0	23234	
1875	0	25530	
1876	0	29812	
1877	0	35040	
1878	0	39384	
1879	0	41756	
1880	0	42672	
1881	0	42256	
1882	0	39856	
1883	0	36636	
1884	0	32832	
1885	0	29700	
1886	0	28492	
1887	0	27564	
1888	0	26398	
1889	0	27012	
1890	0	30096	
1891	0	34628	
1892	0	38904	
1893	0	41956	
1894	0	43208	
1895	0	42456	
1896	0	39412	
1897	0	34760	
1898	0	31272	
1899	0	27864	
1900	0	24320	
1901	0	20830	
1902	0	18736	
1903	0	19904	
1904	0	23800	
1905	0	29288	
1906	0	35852	
1907	0	41152	
1908	0	45984	
1909	0	50248	
1910	0	52752	
1911	0	52272	
1912	0	49200	
1913	0	44120	
1914	0	36012	
1915	0	26016	
1916	0	17588	
1917	0	13224	
1918	0	14352	
1919	0	19012	
1920	0	24988	
1921	0	31840	
1922	0	36776	
1923	0	38304	
1924	0	39172	
1925	0	39940	
1926	0	39812	
1927	0	39476	
1928	0	40064	
1929	0	40468	
1930	0	39296	
1931	0	37992	
1932	0	36836	
1933	0	35264	
1934	0	33512	
1935	0	31636	
1936	0	29716	
1937	0	27324	
1938	0	25952	
1939	0	25676	
1940	0	25784	
1941	0	26812	
1942	0	29436	
1943	0	32080	
1944	0	33816	
1945	0	33936	
1946	0	33380	
1947	0	33048	
1948	0	32564	
1949	0	33620	
1950	0	36136	
1951	0	39264	
1952	0	40520	
1953	0	39160	
1954	0	35132	
1955	0	30704	
1956	0	27732	
1957	0	25354	
1958	0	24512	
1959	0	25788	
1960	0	28272	
1961	0	31064	
1962	0	33116	
1963	0	34088	
1964	0	34328	
1965	0	34720	
1966	0	35312	
1967	0	35320	
1968	0	35632	
1969	0	36324	
1970	0	36748	
1971	0	36136	
1972	0	34732	
1973	0	33576	
1974	0	32152	
1975	0	31020	
1976	0	30936	
1977	0	32912	
1978	0	34164	
1979	0	34312	
1980	0	35308	
1981	0	35916	
1982	0	35104	
1983	0	31852	
1984	0	29212	
1985	0	28376	
1986	0	28344	
1987	0	29508	
1988	0	29688	
1989	0	29014	
1990	0	31180	
1991	0	36152	
1992	0	40136	
1993	0	41896	
1994	0	40236	
1995	0	36032	
1996	0	29600	
1997	0	24180	
1998	0	20980	
1999	0	21752	
2000	0	26820	
2001	0	33256	
2002	0	37920	
2003	0	38984	
2004	0	37892	
2005	0	36216	
2006	0	34552	
2007	0	33434	
2008	0	32648	
2009	0	31692	
2010	0	31448	
2011	0	33028	
2012	0	36481	
2013	0	39088	
2014	0	40516	
2015	0	42048	
2016	0	42492	
2017	0	41322	
2018	0	40256	
2019	0	40816	
2020	0	42464	
2021	0	42384	
2022	0	40520	
2023	0	37372	
2024	0	34816	
2025	0	32512	
2026	0	31072	
2027	0	29968	
2028	0	29480	
2029	0	31316	
2030	0	34336	
2031	0	36696	
2032	0	37784	
2033	0	39124	
2034	0	39680	
2035	0	37064	
2036	0	31464	
2037	0	26090	
2038	0	22508	
2039	0	20300	
2040	0	21168	
2041	0	26040	
2042	0	32476	
2043	0	38072	
2044	0	41492	
2045	0	42624	
2046	0	40776	
2047	0	37700	
2048	0	35832	
2049	0	34928	
2050	0	33460	
2051	0	30784	
2052	0	29688	
2053	0	29816	
2054	0	29104	
2055	0	29032	
2056	0	29218	
2057	0	29280	
2058	0	30476	
2059	0	31872	
2060	0	32452	
2061	0	33580	
2062	0	35580	
2063	0	36536	
2064	0	34356	
2065	0	31868	
2066	0	31449	
2067	0	31188	
2068	0	30368	
2069	0	30276	
2070	0	30008	
2071	0	27888	
2072	0	24584	
2073	0	21689	
2074	0	20700	
2075	0	20352	
2076	0	20892	
2077	0	23220	
2078	0	26208	
2079	0	30104	
2080	0	34936	
2081	0	39372	
2082	0	42552	
2083	0	43996	
2084	0	43400	
2085	0	41464	
2086	0	38500	
2087	0	35444	
2088	0	32648	
2089	0	30288	
2090	0	29408	
2091	0	29920	
2092	0	30626	
2093	0	31492	
2094	0	33392	
2095	0	36600	
2096	0	38784	
2097	0	38744	
2098	0	36808	
2099	0	34748	
2100	0	33484	
2101	0	31976	
2102	0	30316	
2103	0	29184	
2104	0	28860	
2105	0	28156	
2106	0	27588	
2107	0	28148	
2108	0	29616	
2109	0	31524	
2110	0	33532	
2111	0	34560	
2112	0	33420	
2113	0	31464	
2114	0	29664	
2115	0	28632	
2116	0	29720	
2117	0	32064	
2118	0	34152	
2119	0	35716	
2120	0	37380	
2121	0	41208	
2122	0	44756	
2123	0	45786	
2124	0	43962	
2125	0	39376	
2126	0	32924	
2127	0	24640	
2128	0	18872	
2129	0	14758	
2130	0	13884	
2131	0	16126	
2132	0	20070	
2133	0	26474	
2134	0	33520	
2135	0	40676	
2136	0	45640	
2137	0	47144	
2138	0	45112	
2139	0	39924	
2140	0	32744	
2141	0	26088	
2142	0	22216	
2143	0	21196	
2144	0	22492	
2145	0	25560	
2146	0	30160	
2147	0	34880	
2148	0	37492	
2149	0	38772	
2150	0	38788	
2151	0	37128	
2152	0	34980	
2153	0	33304	
2154	0	33876	
2155	0	36024	
2156	0	37208	
2157	0	37900	
2158	0	39112	
2159	0	40224	
2160	0	39656	
2161	0	36356	
2162	0	32084	
2163	0	29876	
2164	0	28800	
2165	0	28208	
2166	0	29240	
2167	0	32076	
2168	0	36180	
2169	0	38488	
2170	0	37296	
2171	0	33644	
2172	0	30308	
2173	0	29312	
2174	0	29636	
2175	0	32864	
2176	0	38616	
2177	0	44464	
2178	0	48128	
2179	0	48744	
2180	0	47472	
2181	0	46072	
2182	0	43376	
2183	0	38704	
2184	0	33388	
2185	0	28850	
2186	0	25232	
2187	0	22120	
2188	0	20694	
2189	0	21380	
2190	0	23162	
2191	0	24948	
2192	0	25556	
2193	0	25504	
2194	0	24952	
2195	0	24613	
2196	0	24968	
2197	0	27124	
2198	0	31224	
2199	0	35844	
2200	0	39024	
2201	0	40844	
2202	0	41780	
2203	0	40548	
2204	0	35724	
2205	0	30512	
2206	0	26572	
2207	0	23884	
2208	0	22700	
2209	0	23028	
2210	0	25012	
2211	0	28476	
2212	0	32920	
2213	0	37336	
2214	0	40876	
2215	0	43392	
2216	0	44140	
2217	0	42248	
2218	0	38404	
2219	0	34056	
2220	0	30876	
2221	0	29072	
2222	0	29356	
2223	0	30308	
2224	0	30904	
2225	0	30952	
2226	0	29740	
2227	0	28456	
2228	0	27960	
2229	0	28960	
2230	0	31884	
2231	0	35568	
2232	0	39224	
2233	0	42172	
2234	0	43696	
2235	0	44962	
2236	0	47056	
2237	0	48440	
2238	0	49784	
2239	0	50616	
2240	0	49824	
2241	0	48136	
2242	0	44648	
2243	0	39600	
2244	0	34016	
2245	0	28676	
2246	0	23052	
2247	0	18264	
2248	0	15706	
2249	0	15882	
2250	0	18321	
2251	0	21540	
2252	0	24980	
2253	0	27476	
2254	0	29252	
2255	0	31232	
2256	0	32072	
2257	0	30346	
2258	0	28252	
2259	0	26845	
2260	0	26192	
2261	0	25804	
2262	0	26700	
2263	0	29240	
2264	0	33008	
2265	0	37260	
2266	0	40956	
2267	0	43072	
2268	0	43816	
2269	0	42488	
2270	0	39312	
2271	0	34936	
2272	0	30581	
2273	0	28148	
2274	0	28760	
2275	0	31580	
2276	0	34224	
2277	0	36316	
2278	0	39068	
2279	0	41064	
2280	0	42360	
2281	0	42020	
2282	0	39956	
2283	0	36500	
2284	0	33496	
2285	0	32240	
2286	0	31296	
2287	0	30348	
2288	0	29220	
2289	0	27990	
2290	0	26436	
2291	0	25796	
2292	0	28140	
2293	0	32944	
2294	0	36280	
2295	0	38176	
2296	0	38840	
2297	0	39468	
2298	0	38824	
2299	0	36588	
2300	0	34080	
2301	0	32000	
2302	0	30392	
2303	0	29604	
2304	0	29400	
2305	0	29754	
2306	0	31384	
2307	0	34144	
2308	0	35732	
2309	0	34436	
2310	0	31924	
2311	0	29272	
2312	0	27714	
2313	0	27796	
2314	0	29432	
2315	0	31688	
2316	0	33700	
2317	0	34890	
2318	0	34536	
2319	0	32874	
2320	0	31248	
2321	0	29872	
2322	0	28696	
2323	0	27344	
2324	0	27272	
2325	0	28976	
2326	0	31520	
2327	0	34384	
2328	0	36756	
2329	0	38924	
2330	0	41184	
2331	0	42240	
2332	0	41312	
2333	0	38144	
2334	0	34148	
2335	0	30952	
2336	0	28880	
2337	0	26716	
2338	0	24556	
2339	0	22584	
2340	0	21576	
2341	0	21208	
2342	0	20944	
2343	0	21500	
2344	0	22800	
2345	0	24330	
2346	0	26056	
2347	0	27756	
2348	0	29368	
2349	0	31680	
2350	0	33932	
2351	0	35852	
2352	0	37772	
2353	0	38472	
2354	0	38492	
2355	0	37744	
2356	0	36106	
2357	0	34748	
2358	0	33472	
2359	0	32476	
2360	0	31928	
2361	0	32340	
2362	0	33208	
2363	0	34360	
2364	0	35040	
2365	0	35144	
2366	0	35064	
2367	0	33544	
2368	0	29736	
2369	0	24976	
2370	0	20696	
2371	0	18992	
2372	0	19100	
2373	0	21696	
2374	0	26588	
2375	0	31276	
2376	0	33688	
2377	0	33840	
2378	0	32676	
2379	0	30224	
2380	0	26976	
2381	0	23204	
2382	0	21052	
2383	0	21340	
2384	0	23508	
2385	0	26900	
2386	0	30744	
2387	0	34104	
2388	0	36696	
2389	0	37884	
2390	0	37690	
2391	0	36588	
2392	0	36012	
2393	0	35596	
2394	0	35120	
2395	0	34616	
2396	0	35220	
2397	0	35968	
2398	0	35480	
2399	0	34356	
2400	0	32440	
2401	0	29000	
2402	0	25441	
2403	0	24110	
2404	0	26624	
2405	0	31596	
2406	0	37376	
2407	0	41240	
2408	0	42776	
2409	0	42340	
2410	0	40100	
2411	0	36456	
2412	0	31496	
2413	0	27728	
2414	0	26272	
2415	0	26408	
2416	0	25936	
2417	0	24488	
2418	0	23600	
2419	0	24100	
2420	0	24960	
2421	0	26428	
2422	0	29100	
2423	0	32044	
2424	0	33140	
2425	0	34060	
2426	0	36792	
2427	0	41064	
2428	0	45352	
2429	0	47068	
2430	0	46520	
2431	0	45228	
2432	0	42520	
2433	0	38272	
2434	0	34360	
2435	0	32996	
2436	0	33460	
2437	0	33600	
2438	0	33040	
2439	0	32116	
2440	0	30752	
2441	0	27956	
2442	0	23832	
2443	0	20352	
2444	0	17868	
2445	0	16613	
2446	0	17306	
2447	0	21172	
2448	0	26126	
2449	0	30588	
2450	0	33732	
2451	0	35768	
2452	0	37400	
2453	0	37088	
2454	0	35424	
2455	0	33724	
2456	0	33756	
2457	0	35000	
2458	0	34524	
2459	0	33112	
2460	0	32296	
2461	0	31988	
2462	0	30548	
2463	0	28500	
2464	0	26848	
2465	0	26488	
2466	0	27760	
2467	0	30524	
2468	0	33556	
2469	0	35840	
2470	0	37084	
2471	0	38512	
2472	0	40128	
2473	0	40968	
2474	0	41212	
2475	0	40728	
2476	0	39684	
2477	0	37200	
2478	0	33206	
2479	0	29336	
2480	0	27976	
2481	0	28552	
2482	0	30056	
2483	0	31722	
2484	0	32476	
2485	0	33160	
2486	0	32380	
2487	0	30418	
2488	0	28932	
2489	0	28040	
2490	0	28064	
2491	0	27976	
2492	0	27468	
2493	0	27296	
2494	0	27564	
2495	0	28072	
2496	0	28240	
2497	0	28098	
2498	0	28768	
2499	0	29232	
2500	0	29040	
2501	0	29200	
2502	0	30344	
2503	0	32280	
2504	0	33604	
2505	0	33064	
2506	0	32004	
2507	0	31928	
2508	0	31372	
2509	0	32264	
2510	0	34600	
2511	0	37056	
2512	0	38732	
2513	0	40088	
2514	0	41256	
2515	0	41896	
2516	0	41768	
2517	0	42392	
2518	0	43524	
2519	0	43420	
2520	0	41776	
2521	0	38356	
2522	0	33512	
2523	0	28472	
2524	0	24792	
2525	0	22884	
2526	0	23456	
2527	0	26172	
2528	0	29524	
2529	0	31776	
2530	0	32560	
2531	0	31288	
2532	0	29184	
2533	0	27840	
2534	0	27744	
2535	0	29680	
2536	0	32773	
2537	0	34404	
2538	0	34310	
2539	0	33464	
2540	0	32632	
2541	0	31562	
2542	0	31292	
2543	0	30984	
2544	0	30580	
2545	0	30036	
2546	0	28140	
2547	0	25582	
2548	0	22592	
2549	0	20976	
2550	0	20616	
2551	0	22145	
2552	0	25384	
2553	0	30816	
2554	0	37516	
2555	0	41988	
2556	0	44212	
2557	0	45140	
2558	0	45658	
2559	0	44456	
2560	0	42280	
2561	0	39988	
2562	0	36508	
2563	0	32120	
2564	0	27836	
2565	0	24708	
2566	0	22360	
2567	0	20860	
2568	0	20036	
2569	0	19992	
2570	0	21600	
2571	0	23421	
2572	0	26460	
2573	0	30192	
2574	0	33880	
2575	0	36976	
2576	0	40656	
2577	0	46616	
2578	0	51636	
2579	0	52836	
2580	0	50408	
2581	0	46308	
2582	0	40624	
2583	0	32476	
2584	0	24569	
2585	0	20928	
2586	0	20132	
2587	0	20044	
2588	0	20470	
2589	0	21502	
2590	0	22118	
2591	0	21584	
2592	0	21210	
2593	0	21232	
2594	0	21922	
2595	0	23942	
2596	0	26708	
2597	0	29632	
2598	0	32928	
2599	0	36280	
2600	0	38374	
2601	0	37448	
2602	0	34980	
2603	0	32304	
2604	0	29948	
2605	0	27597	
2606	0	25714	
2607	0	25156	
2608	0	27340	
2609	0	32016	
2610	0	38040	
2611	0	43100	
2612	0	47144	
2613	0	49472	
2614	0	48044	
2615	0	43448	
2616	0	38512	
2617	0	34560	
2618	0	31112	
2619	0	29252	
2620	0	28788	
2621	0	29072	
2622	0	29284	
2623	0	29588	
2624	0	31892	
2625	0	35812	
2626	0	40696	
2627	0	45548	
2628	0	48824	
2629	0	49172	
2630	0	45912	
2631	0	41524	
2632	0	38872	
2633	0	37560	
2634	0	36040	
2635	0	34024	
2636	0	32436	
2637	0	31012	
2638	0	28218	
2639	0	24752	
2640	0	22768	
2641	0	21598	
2642	0	20440	
2643	0	20410	
2644	0	22848	
2645	0	27072	
2646	0	30792	
2647	0	32876	
2648	0	33024	
2649	0	31312	
2650	0	27916	
2651	0	24286	
2652	0	22288	
2653	0	23484	
2654	0	27816	
2655	0	32992	
2656	0	37056	
2657	0	39328	
2658	0	40612	
2659	0	39896	
2660	0	38068	
2661	0	36772	
2662	0	34404	
2663	0	31336	
2664	0	28730	
2665	0	26412	
2666	0	24364	
2667	0	22848	
2668	0	22576	
2669	0	24316	
2670	0	26690	
2671	0	29584	
2672	0	33900	
2673	0	37848	
2674	0	40256	
2675	0	41768	
2676	0	42000	
2677	0	42908	
2678	0	46344	
2679	0	48792	
2680	0	48560	
2681	0	46328	
2682	0	43240	
2683	0	39328	
2684	0	33472	
2685	0	26116	
2686	0	20236	
2687	0	16196	
2688	0	14705	
2689	0	15532	
2690	0	18430	
2691	0	22538	
2692	0	26732	
2693	0	30792	
2694	0	34456	
2695	0	36956	
2696	0	37502	
2697	0	36592	
2698	0	35136	
2699	0	34052	
2700	0	33244	
2701	0	31604	
2702	0	30912	
2703	0	31316	
2704	0	31868	
2705	0	34000	
2706	0	37484	
2707	0	40816	
2708	0	42928	
2709	0	44080	
2710	0	43608	
2711	0	41036	
2712	0	36408	
2713	0	31576	
2714	0	28404	
2715	0	26084	
2716	0	23408	
2717	0	20348	
2718	0	17106	
2719	0	13553	
2720	0	11422	
2721	0	13088	
2722	0	16837	
2723	0	21498	
2724	0	26712	
2725	0	31408	
2726	0	36672	
2727	0	41936	
2728	0	45348	
2729	0	46456	
2730	0	45016	
2731	0	42680	
2732	0	40300	
2733	0	36808	
2734	0	33520	
2735	0	32240	
2736	0	32536	
2737	0	32840	
2738	0	32296	
2739	0	32260	
2740	0	32856	
2741	0	35080	
2742	0	37524	
2743	0	38792	
2744	0	39040	
2745	0	38160	
2746	0	36192	
2747	0	34316	
2748	0	33156	
2749	0	33160	
2750	0	34020	
2751	0	35212	
2752	0	36332	
2753	0	37660	
2754	0	38792	
2755	0	38132	
2756	0	35824	
2757	0	33480	
2758	0	32312	
2759	0	32476	
2760	0	33748	
2761	0	35616	
2762	0	38020	
2763	0	41860	
2764	0	45732	
2765	0	47208	
2766	0	47352	
2767	0	47176	
2768	0	45744	
2769	0	43008	
2770	0	39344	
2771	0	35872	
2772	0	34420	
2773	0	34708	
2774	0	34708	
2775	0	33748	
2776	0	31692	
2777	0	27778	
2778	0	23716	
2779	0	20072	
2780	0	18816	
2781	0	21400	
2782	0	26512	
2783	0	31056	
2784	0	35512	
2785	0	40544	
2786	0	44168	
2787	0	45620	
2788	0	44280	
2789	0	39400	
2790	0	33472	
2791	0	28576	
2792	0	26004	
2793	0	26296	
2794	0	29124	
2795	0	32988	
2796	0	35828	
2797	0	37048	
2798	0	37080	
2799	0	35744	
2800	0	33860	
2801	0	33204	
2802	0	33592	
2803	0	34276	
2804	0	34112	
2805	0	32716	
2806	0	30208	
2807	0	28356	
2808	0	27412	
2809	0	27816	
2810	0	28812	
2811	0	29088	
2812	0	28768	
2813	0	29352	
2814	0	31580	
2815	0	33554	
2816	0	35176	
2817	0	36962	
2818	0	37832	
2819	0	36792	
2820	0	34900	
2821	0	31908	
2822	0	28114	
2823	0	25324	
2824	0	25208	
2825	0	27692	
2826	0	30716	
2827	0	32752	
2828	0	34576	
2829	0	35956	
2830	0	35524	
2831	0	32440	
2832	0	28608	
2833	0	26668	
2834	0	27128	
2835	0	27904	
2836	0	28728	
2837	0	30960	
2838	0	34420	
2839	0	37520	
2840	0	39660	
2841	0	39744	
2842	0	38448	
2843	0	36448	
2844	0	33808	
2845	0	32036	
2846	0	31144	
2847	0	31340	
2848	0	33072	
2849	0	34632	
2850	0	35344	
2851	0	34376	
2852	0	32416	
2853	0	29568	
2854	0	27336	
2855	0	26616	
2856	0	26148	
2857	0	25313	
2858	0	25324	
2859	0	25600	
2860	0	26472	
2861	0	27848	
2862	0	29352	
2863	0	30820	
2864	0	31996	
2865	0	32744	
2866	0	34224	
2867	0	35644	
2868	0	36092	
2869	0	36008	
2870	0	35632	
2871	0	35964	
2872	0	36716	
2873	0	36972	
2874	0	37528	
2875	0	39776	
2876	0	42948	
2877	0	45528	
2878	0	46800	
2879	0	45264	
2880	0	41216	
2881	0	36028	
2882	0	30344	
2883	0	24504	
2884	0	18784	
2885	0	15656	
2886	0	14968	
2887	0	15980	
2888	0	17552	
2889	0	19396	
2890	0	22692	
2891	0	26932	
2892	0	30476	
2893	0	33380	
2894	0	36204	
2895	0	38608	
2896	0	40208	
2897	0	41224	
2898	0	41608	
2899	0	42120	
2900	0	42636	
2901	0	42300	
2902	0	41356	
2903	0	39832	
2904	0	37944	
2905	0	34696	
2906	0	29792	
2907	0	24802	
2908	0	21752	
2909	0	20532	
2910	0	20012	
2911	0	20360	
2912	0	23320	
2913	0	28548	
2914	0	33088	
2915	0	35488	
2916	0	36316	
2917	0	36412	
2918	0	36720	
2919	0	37398	
2920	0	38808	
2921	0	40260	
2922	0	41456	
2923	0	42024	
2924	0	40100	
2925	0	34944	
2926	0	28976	
2927	0	24608	
2928	0	22417	
2929	0	22312	
2930	0	25040	
2931	0	29598	
2932	0	33304	
2933	0	35592	
2934	0	36796	
2935	0	36712	
2936	0	35844	
2937	0	35288	
2938	0	34360	
2939	0	32712	
2940	0	31304	
2941	0	30068	
2942	0	29232	
2943	0	28296	
2944	0	27994	
2945	0	28880	
2946	0	31536	
2947	0	35312	
2948	0	37916	
2949	0	40408	
2950	0	42376	
2951	0	42120	
2952	0	39864	
2953	0	36516	
2954	0	33282	
2955	0	31256	
2956	0	31196	
2957	0	30792	
2958	0	30524	
2959	0	30914	
2960	0	31677	
2961	0	32336	
2962	0	33324	
2963	0	34660	
2964	0	36146	
2965	0	37524	
2966	0	39248	
2967	0	40220	
2968	0	40400	
2969	0	39912	
2970	0	39032	
2971	0	37908	
2972	0	36833	
2973	0	36588	
2974	0	35952	
2975	0	35044	
2976	0	34732	
2977	0	35268	
2978	0	35696	
2979	0	36300	
2980	0	36480	
2981	0	35672	
2982	0	33272	
2983	0	30772	
2984	0	28516	
2985	0	26705	
2986	0	24668	
2987	0	22488	
2988	0	20910	
2989	0	21104	
2990	0	23580	
2991	0	27728	
2992	0	32460	
2993	0	36696	
2994	0	39956	
2995	0	42264	
2996	0	43536	
2997	0	44296	
2998	0	44032	
2999	0	42384	
3000	0	39640	
3001	0	36176	
3002	0	33648	
3003	0	32392	
3004	0	32112	
3005	0	32620	
3006	0	32352	
3007	0	31512	
3008	0	30594	
3009	0	29916	
3010	0	29010	
3011	0	28712	
3012	0	29644	
3013	0	30898	
3014	0	32600	
3015	0	34724	
3016	0	36908	
3017	0	38176	
3018	0	39408	
3019	0	40864	
3020	0	41152	
3021	0	39448	
3022	0	37132	
3023	0	35692	
3024	0	35144	
3025	0	34784	
3026	0	34152	
3027	0	33460	
3028	0	32956	
3029	0	32780	
3030	0	32714	
3031	0	32540	
3032	0	31740	
3033	0	29834	
3034	0	28312	
3035	0	27756	
3036	0	27668	
3037	0	29544	
3038	0	32940	
3039	0	36352	
3040	0	38012	
3041	0	38472	
3042	0	37272	
3043	0	34364	
3044	0	32816	
3045	0	34320	
3046	0	37688	
3047	0	42440	
3048	0	45972	
3049	0	47448	
3050	0	45936	
3051	0	41056	
3052	0	34732	
3053	0	28712	
3054	0	25076	
3055	0	22997	
3056	0	20776	
3057	0	18984	
3058	0	18824	
3059	0	20620	
3060	0	23508	
3061	0	27676	
3062	0	33176	
3063	0	39252	
3064	0	43344	
3065	0	45056	
3066	0	44960	
3067	0	44020	
3068	0	41326	
3069	0	35920	
3070	0	29916	
3071	0	25332	
3072	0	21368	
3073	0	18392	
3074	0	17676	
3075	0	19288	
3076	0	22136	
3077	0	25772	
3078	0	29460	
3079	0	32740	
3080	0	35520	
3081	0	37720	
3082	0	39372	
3083	0	39920	
3084	0	38938	
3085	0	36466	
3086	0	33032	
3087	0	29404	
3088	0	26040	
3089	0	22604	
3090	0	20364	
3091	0	20276	
3092	0	22156	
3093	0	25304	
3094	0	28776	
3095	0	33140	
3096	0	37532	
3097	0	40348	
3098	0	41104	
3099	0	41332	
3100	0	42512	
3101	0	44284	
3102	0	45356	
3103	0	44768	
3104	0	42872	
3105	0	39244	
3106	0	34372	
3107	0	29252	
3108	0	25656	
3109	0	23978	
3110	0	23216	
3111	0	22716	
3112	0	23148	
3113	0	24346	
3114	0	25660	
3115	0	26844	
3116	0	29312	
3117	0	32854	
3118	0	36620	
3119	0	40064	
3120	0	42876	
3121	0	44992	
3122	0	46088	
3123	0	44188	
3124	0	40368	
3125	0	36618	
3126	0	32084	
3127	0	27276	
3128	0	22896	
3129	0	19528	
3130	0	18012	
3131	0	18596	
3132	0	21042	
3133	0	24196	
3134	0	28036	
3135	0	32522	
3136	0	36692	
3137	0	39136	
3138	0	40292	
3139	0	39556	
3140	0	37556	
3141	0	35420	
3142	0	33564	
3143	0	31928	
3144	0	29676	
3145	0	27128	
3146	0	25174	
3147	0	23518	
3148	0	22914	
3149	0	23112	
3150	0	23548	
3151	0	24388	
3152	0	26597	
3153	0	29332	
3154	0	31716	
3155	0	33876	
3156	0	34680	
3157	0	33240	
3158	0	31200	
3159	0	29676	
3160	0	29386	
3161	0	30744	
3162	0	33016	
3163	0	35292	
3164	0	36340	
3165	0	35504	
3166	0	34184	
3167	0	33452	
3168	0	33200	
3169	0	33280	
3170	0	34128	
3171	0	35048	
3172	0	35384	
3173	0	35720	
3174	0	35596	
3175	0	35120	
3176	0	34488	
3177	0	33804	
3178	0	33100	
3179	0	32300	
3180	0	31016	
3181	0	30178	
3182	0	30856	
3183	0	32320	
3184	0	33764	
3185	0	33484	
3186	0	31636	
3187	0	31316	
3188	0	32508	
3189	0	34072	
3190	0	35604	
3191	0	37656	
3192	0	38660	
3193	0	37728	
3194	0	35628	
3195	0	33124	
3196	0	31032	
3197	0	29728	
3198	0	28620	
3199	0	28268	
3200	0	28376	
3201	0	29048	
3202	0	30180	
3203	0	31856	
3204	0	34200	
3205	0	36168	
3206	0	37216	
3207	0	37156	
3208	0	36348	
3209	0	35562	
3210	0	35660	
3211	0	36016	
3212	0	35180	
3213	0	33072	
3214	0	31256	
3215	0	30512	
3216	0	31136	
3217	0	32220	
3218	0	32448	
3219	0	32104	
3220	0	31436	
3221	0	30512	
3222	0	29984	
3223	0	28938	
3224	0	28060	
3225	0	28736	
3226	0	30688	
3227	0	32128	
3228	0	33564	
3229	0	35908	
3230	0	38044	
3231	0	38488	
3232	0	37344	
3233	0	36180	
3234	0	34892	
3235	0	32960	
3236	0	30856	
3237	0	28596	
3238	0	26860	
3239	0	26348	
3240	0	26796	
3241	0	28296	
3242	0	30924	
3243	0	34242	
3244	0	37264	
3245	0	38200	
3246	0	36744	
3247	0	34056	
3248	0	30844	
3249	0	27488	
3250	0	24816	
3251	0	23680	
3252	0	25008	
3253	0	27604	
3254	0	30072	
3255	0	32416	
3256	0	35144	
3257	0	36896	
3258	0	36616	
3259	0	36276	
3260	0	36136	
3261	0	34532	
3262	0	32468	
3263	0	31500	
3264	0	31696	
3265	0	32064	
3266	0	32380	
3267	0	32728	
3268	0	33932	
3269	0	36272	
3270	0	38952	
3271	0	40792	
3272	0	42060	
3273	0	42860	
3274	0	43148	
3275	0	43016	
3276	0	41972	
3277	0	39764	
3278	0	35884	
3279	0	30828	
3280	0	25380	
3281	0	20065	
3282	0	16004	
3283	0	15012	
3284	0	17712	
3285	0	21300	
3286	0	25700	
3287	0	31160	
3288	0	37100	
3289	0	40968	
3290	0	42220	
3291	0	42254	
3292	0	42368	
3293	0	42228	
3294	0	41320	
3295	0	39252	
3296	0	36736	
3297	0	34064	
3298	0	31682	
3299	0	28812	
3300	0	25673	
3301	0	22840	
3302	0	21336	
3303	0	21290	
3304	0	22380	
3305	0	24484	
3306	0	27204	
3307	0	29936	
3308	0	33096	
3309	0	37020	
3310	0	40120	
3311	0	41380	
3312	0	41328	
3313	0	39008	
3314	0	34944	
3315	0	30170	
3316	0	26488	
3317	0	25057	
3318	0	27148	
3319	0	31476	
3320	0	37580	
3321	0	42080	
3322	0	43456	
3323	0	41004	
3324	0	35984	
3325	0	30740	
3326	0	27936	
3327	0	26052	
3328	0	25180	
3329	0	27368	
3330	0	30980	
3331	0	33492	
3332	0	33844	
3333	0	33612	
3334	0	33850	
3335	0	33464	
3336	0	32112	
3337	0	30856	
3338	0	30616	
3339	0	31498	
3340	0	32216	
3341	0	32192	
3342	0	31552	
3343	0	32040	
3344	0	34200	
3345	0	36096	
3346	0	36292	
3347	0	36168	
3348	0	35776	
3349	0	34320	
3350	0	32024	
3351	0	30200	
3352	0	29326	
3353	0	30328	
3354	0	31940	
3355	0	33844	
3356	0	35484	
3357	0	35932	
3358	0	35508	
3359	0	34032	
3360	0	32496	
3361	0	30828	
3362	0	29196	
3363	0	27668	
3364	0	27464	
3365	0	29392	
3366	0	32520	
3367	0	34068	
3368	0	34784	
3369	0	35108	
3370	0	35408	
3371	0	36544	
3372	0	37208	
3373	0	38092	
3374	0	38548	
3375	0	37360	
3376	0	34964	
3377	0	32108	
3378	0	28972	
3379	0	25466	
3380	0	23668	
3381	0	25728	
3382	0	29332	
3383	0	33764	
3384	0	37424	
3385	0	39264	
3386	0	39904	
3387	0	39394	
3388	0	37524	
3389	0	34272	
3390	0	30864	
3391	0	28928	
3392	0	28832	
3393	0	31092	
3394	0	35576	
3395	0	38360	
3396	0	38812	
3397	0	38212	
3398	0	37260	
3399	0	34820	
3400	0	30992	
3401	0	28680	
3402	0	28508	
3403	0	29048	
3404	0	29484	
3405	0	30032	
3406	0	30344	
3407	0	30920	
3408	0	32208	
3409	0	34664	
3410	0	36240	
3411	0	36228	
3412	0	34240	
3413	0	31260	
3414	0	29100	
3415	0	27008	
3416	0	24973	
3417	0	24890	
3418	0	27160	
3419	0	29498	
3420	0	30636	
3421	0	32732	
3422	0	36492	
3423	0	39616	
3424	0	41328	
3425	0	42352	
3426	0	42192	
3427	0	40992	
3428	0	39265	
3429	0	38412	
3430	0	37692	
3431	0	36760	
3432	0	35528	
3433	0	33952	
3434	0	31318	
3435	0	27340	
3436	0	24496	
3437	0	24004	
3438	0	25432	
3439	0	27996	
3440	0	30808	
3441	0	32236	
3442	0	32996	
3443	0	32736	
3444	0	33000	
3445	0	32886	
3446	0	32140	
3447	0	31824	
3448	0	31668	
3449	0	32168	
3450	0	32504	
3451	0	33274	
3452	0	33736	
3453	0	33746	
3454	0	33116	
3455	0	31080	
3456	0	28948	
3457	0	28432	
3458	0	29692	
3459	0	31640	
3460	0	33536	
3461	0	35504	
3462	0	37052	
3463	0	38100	
3464	0	39012	
3465	0	38532	
3466	0	36472	
3467	0	34632	
3468	0	32424	
3469	0	29340	
3470	0	26800	
3471	0	25096	
3472	0	24128	
3473	0	25108	
3474	0	27100	
3475	0	30392	
3476	0	34612	
3477	0	38828	
3478	0	41296	
3479	0	41192	
3480	0	39320	
3481	0	36448	
3482	0	33384	
3483	0	30976	
3484	0	28788	
3485	0	27352	
3486	0	26916	
3487	0	28960	
3488	0	31720	
3489	0	34232	
3490	0	36712	
3491	0	38832	
3492	0	39704	
3493	0	39320	
3494	0	38636	
3495	0	36924	
3496	0	34736	
3497	0	32996	
3498	0	32464	
3499	0	32244	
3500	0	31668	
3501	0	31932	
3502	0	32920	
3503	0	34452	
3504	0	35420	
3505	0	36440	
3506	0	37592	
3507	0	39116	
3508	0	42004	
3509	0	44784	
3510	0	45688	
3511	0	44504	
3512	0	41104	
3513	0	37100	
3514	0	34076	
3515	0	32640	
3516	0	32684	
3517	0	33008	
3518	0	33156	
3519	0	33264	
3520	0	33016	
3521	0	32570	
3522	0	32736	
3523	0	33468	
3524	0	33776	
3525	0	33788	
3526	0	34376	
3527	0	35788	
3528	0	37860	
3529	0	39928	
3530	0	40776	
3531	0	41304	
3532	0	41836	
3533	0	40716	
3534	0	38200	
3535	0	35508	
3536	0	32408	
3537	0	28832	
3538	0	26498	
3539	0	26432	
3540	0	27220	
3541	0	29114	
3542	0	32164	
3543	0	34996	
3544	0	36700	
3545	0	37100	
3546	0	36528	
3547	0	35596	
3548	0	35428	
3549	0	35312	
3550	0	35204	
3551	0	34768	
3552	0	34684	
3553	0	35312	
3554	0	36160	
3555	0	37068	
3556	0	37212	
3557	0	35632	
3558	0	32544	
3559	0	28980	
3560	0	26300	
3561	0	24608	
3562	0	24080	
3563	0	24112	
3564	0	24648	
3565	0	25978	
3566	0	27556	
3567	0	29160	
3568	0	30920	
3569	0	32940	
3570	0	34480	
3571	0	34848	
3572	0	34284	
3573	0	33680	
3574	0	33236	
3575	0	33560	
3576	0	35632	
3577	0	37944	
3578	0	40000	
3579	0	41336	
3580	0	40948	
3581	0	39212	
3582	0	36266	
3583	0	32768	
3584	0	29324	
3585	0	26980	
3586	0	25376	
3587	0	23872	
3588	0	23172	
3589	0	23988	
3590	0	25416	
3591	0	25800	
3592	0	27808	
3593	0	31212	
3594	0	33560	
3595	0	34060	
3596	0	33656	
3597	0	32868	
3598	0	32056	
3599	0	31404	
3600	0	31124	
3601	0	31196	
3602	0	30592	
3603	0	29312	
3604	0	29180	
3605	0	30488	
3606	0	32512	
3607	0	34496	
3608	0	35836	
3609	0	36640	
3610	0	36912	
3611	0	37516	
3612	0	37800	
3613	0	38804	
3614	0	39752	
3615	0	40692	
3616	0	40968	
3617	0	40400	
3618	0	38724	
3619	0	36308	
3620	0	34388	
3621	0	32580	
3622	0	31468	
3623	0	30964	
3624	0	30528	
3625	0	29996	
3626	0	29648	
3627	0	30332	
3628	0	31708	
3629	0	32528	
3630	0	32172	
3631	0	31616	
3632	0	31400	
3633	0	31108	
3634	0	31056	
3635	0	31348	
3636	0	32074	
3637	0	32228	
3638	0	31004	
3639	0	30040	
3640	0	29240	
3641	0	29316	
3642	0	30468	
3643	0	32090	
3644	0	33492	
3645	0	34644	
3646	0	35040	
3647	0	35136	
3648	0	34344	
3649	0	33676	
3650	0	33564	
3651	0	33960	
3652	0	34924	
3653	0	35564	
3654	0	35684	
3655	0	35016	
3656	0	34352	
3657	0	33352	
3658	0	31736	
3659	0	30292	
3660	0	29696	
3661	0	29848	
3662	0	29808	
3663	0	29760	
3664	0	29968	
3665	0	29898	
3666	0	29560	
3667	0	29944	
3668	0	31112	
3669	0	32508	
3670	0	32988	
3671	0	33076	
3672	0	33618	
3673	0	33596	
3674	0	33438	
3675	0	34664	
3676	0	36356	
3677	0	38164	
3678	0	39908	
3679	0	40876	
3680	0	40664	
3681	0	39020	
3682	0	36976	
3683	0	35460	
3684	0	33712	
3685	0	31968	
3686	0	31592	
3687	0	31756	
3688	0	32504	
3689	0	32848	
3690	0	32920	
3691	0	32960	
3692	0	33592	
3693	0	34660	
3694	0	35080	
3695	0	35288	
3696	0	35516	
3697	0	35292	
3698	0	34680	
3699	0	34228	
3700	0	33320	
3701	0	31888	
3702	0	31004	
3703	0	30592	
3704	0	30108	
3705	0	29140	
3706	0	28472	
3707	0	29052	
3708	0	30808	
3709	0	33248	
3710	0	35300	
3711	0	36580	
3712	0	37532	
3713	0	37996	
3714	0	38980	
3715	0	39892	
3716	0	40184	
3717	0	40466	
3718	0	39776	
3719	0	37388	
3720	0	33472	
3721	0	29932	
3722	0	28224	
3723	0	28584	
3724	0	29148	
3725	0	28682	
3726	0	29232	
3727	0	31372	
3728	0	33124	
3729	0	33652	
3730	0	33272	
3731	0	32820	
3732	0	32832	
3733	0	33018	
3734	0	33768	
3735	0	35456	
3736	0	37304	
3737	0	37976	
3738	0	37736	
3739	0	35768	
3740	0	32476	
3741	0	29888	
3742	0	28692	
3743	0	28248	
3744	0	29164	
3745	0	31592	
3746	0	34296	
3747	0	36112	
3748	0	36960	
3749	0	37288	
3750	0	37048	
3751	0	36336	
3752	0	35908	
3753	0	35736	
3754	0	36220	
3755	0	37220	
3756	0	38512	
3757	0	40236	
3758	0	42216	
3759	0	42500	
3760	0	40844	
3761	0	38508	
3762	0	36276	
3763	0	34092	
3764	0	32572	
3765	0	32080	
3766	0	32401	
3767	0	32902	
3768	0	32956	
3769	0	32032	
3770	0	31136	
3771	0	30720	
3772	0	29788	
3773	0	28652	
3774	0	28540	
3775	0	29914	
3776	0	33244	
3777	0	38212	
3778	0	42946	
3779	0	46072	
3780	0	47432	
3781	0	46692	
3782	0	43456	
3783	0	38892	
3784	0	34520	
3785	0	30672	
3786	0	28146	
3787	0	27168	
3788	0	27434	
3789	0	28504	
3790	0	28896	
3791	0	28240	
3792	0	27392	
3793	0	27980	
3794	0	30384	
3795	0	33176	
3796	0	34904	
3797	0	36096	
3798	0	37576	
3799	0	37508	
3800	0	35424	
3801	0	33436	
3802	0	32480	
3803	0	32176	
3804	0	31306	
3805	0	29932	
3806	0	28624	
3807	0	27412	
3808	0	26780	
3809	0	26904	
3810	0	28716	
3811	0	30720	
3812	0	32472	
3813	0	34200	
3814	0	34784	
3815	0	34368	
3816	0	33888	
3817	0	34260	
3818	0	36120	
3819	0	38108	
3820	0	38972	
3821	0	37536	
3822	0	34792	
3823	0	31660	
3824	0	28728	
3825	0	25800	
3826	0	24688	
3827	0	25152	
3828	0	26924	
3829	0	29482	
3830	0	31984	
3831	0	33616	
3832	0	34432	
3833	0	34844	
3834	0	34760	
3835	0	34296	
3836	0	34018	
3837	0	33028	
3838	0	31336	
3839	0	29436	
3840	0	28328	
3841	0	27096	
3842	0	26128	
3843	0	25304	
3844	0	25788	
3845	0	27272	
3846	0	29112	
3847	0	31700	
3848	0	35240	
3849	0	38156	
3850	0	39548	
3851	0	39956	
3852	0	40080	
3853	0	39908	
3854	0	38216	
3855	0	35344	
3856	0	32680	
3857	0	29880	
3858	0	27558	
3859	0	25380	
3860	0	23781	
3861	0	23700	
3862	0	25272	
3863	0	27024	
3864	0	28700	
3865	0	30424	
3866	0	31908	
3867	0	32832	
3868	0	33440	
3869	0	33228	
3870	0	32064	
3871	0	30400	
3872	0	29940	
3873	0	30256	
3874	0	30864	
3875	0	32368	
3876	0	34388	
3877	0	36416	
3878	0	37244	
3879	0	37160	
3880	0	36468	
3881	0	34928	
3882	0	33328	
3883	0	31952	
3884	0	30288	
3885	0	29332	
3886	0	28036	
3887	0	27040	
3888	0	27416	
3889	0	28888	
3890	0	30976	
3891	0	33072	
3892	0	34602	
3893	0	35336	
3894	0	35868	
3895	0	37260	
3896	0	39500	
3897	0	40784	
3898	0	40296	
3899	0	38320	
3900	0	34576	
3901	0	29956	
3902	0	25794	
3903	0	22860	
3904	0	22062	
3905	0	23084	
3906	0	24502	
3907	0	26408	
3908	0	28812	
3909	0	31580	
3910	0	33972	
3911	0	35448	
3912	0	36360	
3913	0	36956	
3914	0	37248	
3915	0	37428	
3916	0	36112	
3917	0	34360	
3918	0	32748	
3919	0	30540	
3920	0	28912	
3921	0	28164	
3922	0	27704	
3923	0	28172	
3924	0	29484	
3925	0	30640	
3926	0	30560	
3927	0	29464	
3928	0	28224	
3929	0	27780	
3930	0	28828	
3931	0	30872	
3932	0	32432	
3933	0	33642	
3934	0	34644	
3935	0	34668	
3936	0	34008	
3937	0	33686	
3938	0	34904	
3939	0	36052	
3940	0	35620	
3941	0	34344	
3942	0	33528	
3943	0	33440	
3944	0	33272	
3945	0	32032	
3946	0	30036	
3947	0	28256	
3948	0	26852	
3949	0	25580	
3950	0	25216	
3951	0	26524	
3952	0	29192	
3953	0	32524	
3954	0	35036	
3955	0	38316	
3956	0	42592	
3957	0	45360	
3958	0	45440	
3959	0	43456	
3960	0	39792	
3961	0	35328	
3962	0	31308	
3963	0	27732	
3964	0	24632	
3965	0	23428	
3966	0	24576	
3967	0	28000	
3968	0	32236	
3969	0	34564	
3970	0	35192	
3971	0	36024	
3972	0	36540	
3973	0	35316	
3974	0	33788	
3975	0	34600	
3976	0	35476	
3977	0	35220	
3978	0	34540	
3979	0	33396	
3980	0	31692	
3981	0	30300	
3982	0	29012	
3983	0	27812	
3984	0	26932	
3985	0	27620	
3986	0	29796	
3987	0	32678	
3988	0	35136	
3989	0	36284	
3990	0	34950	
3991	0	31672	
3992	0	28320	
3993	0	26796	
3994	0	27080	
3995	0	28442	
3996	0	30680	
3997	0	33372	
3998	0	34204	
3999	0	32812	
4000	0	29860	
4001	0	27588	
4002	0	27221	
4003	0	30052	
4004	0	35376	
4005	0	41392	
4006	0	46736	
4007	0	50784	
4008	0	53196	
4009	0	52708	
4010	0	50532	
4011	0	46320	
4012	0	41640	
4013	0	37264	
4014	0	32636	
4015	0	28004	
4016	0	25450	
4017	0	24020	
4018	0	23438	
4019	0	23036	
4020	0	23208	
4021	0	23880	
4022	0	24468	
4023	0	25932	
4024	0	27976	
4025	0	29388	
4026	0	29696	
4027	0	29272	
4028	0	28276	
4029	0	26452	
4030	0	25345	
4031	0	26228	
4032	0	30084	
4033	0	36408	
4034	0	41664	
4035	0	44640	
4036	0	45452	
4037	0	44472	
4038	0	41712	
4039	0	36800	
4040	0	30928	
4041	0	26812	
4042	0	25736	
4043	0	26888	
4044	0	28720	
4045	0	30044	
4046	0	31048	
4047	0	31548	
4048	0	31864	
4049	0	31844	
4050	0	31656	
4051	0	31064	
4052	0	29192	
4053	0	26908	
4054	0	24844	
4055	0	22964	
4056	0	22248	
4057	0	23648	
4058	0	26576	
4059	0	30096	
4060	0	33456	
4061	0	36408	
4062	0	38256	
4063	0	38912	
4064	0	39232	
4065	0	39508	
4066	0	39316	
4067	0	38764	
4068	0	37252	
4069	0	35432	
4070	0	33992	
4071	0	33000	
4072	0	32696	
4073	0	34352	
4074	0	36308	
4075	0	37136	
4076	0	36776	
4077	0	35760	
4078	0	34180	
4079	0	31724	
4080	0	29168	
4081	0	26928	
4082	0	25584	
4083	0	25544	
4084	0	26460	
4085	0	27644	
4086	0	28960	
4087	0	30624	
4088	0	32492	
4089	0	34120	
4090	0	36204	
4091	0	38464	
4092	0	40864	
4093	0	42544	
4094	0	43048	
4095	0	42552	
4096	0	40228	
4097	0	36448	
4098	0	31312	
4099	0	26504	
4100	0	22880	
4101	0	20788	
4102	0	20636	
4103	0	21920	
4104	0	23880	
4105	0	26220	
4106	0	28964	
4107	0	32408	
4108	0	35860	
4109	0	38152	
4110	0	39020	
4111	0	38828	
4112	0	38608	
4113	0	39064	
4114	0	39424	
4115	0	39528	
4116	0	39936	
4117	0	39760	
4118	0	37216	
4119	0	33348	
4120	0	30428	
4121	0	29028	
4122	0	27488	
4123	0	26116	
4124	0	25516	
4125	0	25596	
4126	0	25860	
4127	0	25298	
4128	0	24652	
4129	0	24412	
4130	0	24880	
4131	0	26138	
4132	0	28568	
4133	0	31676	
4134	0	33972	
4135	0	35092	
4136	0	36728	
4137	0	38564	
4138	0	39568	
4139	0	38700	
4140	0	37236	
4141	0	35000	
4142	0	31858	
4143	0	28912	
4144	0	27320	
4145	0	25648	
4146	0	25816	
4147	0	27808	
4148	0	30320	
4149	0	33100	
4150	0	34888	
4151	0	35416	
4152	0	35674	
4153	0	36024	
4154	0	37064	
4155	0	38792	
4156	0	39384	
4157	0	37686	
4158	0	34816	
4159	0	32480	
4160	0	31104	
4161	0	30624	
4162	0	30036	
4163	0	30828	
4164	0	32136	
4165	0	32440	
4166	0	32020	
4167	0	32272	
4168	0	33052	
4169	0	33504	
4170	0	33648	
4171	0	33588	
4172	0	32936	
4173	0	32768	
4174	0	32624	
4175	0	32801	
4176	0	32784	
4177	0	32620	
4178	0	33448	
4179	0	35264	
4180	0	36700	
4181	0	37772	
4182	0	38134	
4183	0	38320	
4184	0	38256	
4185	0	37256	
4186	0	36072	
4187	0	34416	
4188	0	33352	
4189	0	32604	
4190	0	31120	
4191	0	30344	
4192	0	29712	
4193	0	29572	
4194	0	30040	
4195	0	31040	
4196	0	30688	
4197	0	29440	
4198	0	27672	
4199	0	25880	
4200	0	25104	
4201	0	25652	
4202	0	28408	
4203	0	33124	
4204	0	38352	
4205	0	42024	
4206	0	43604	
4207	0	43436	
4208	0	40756	
4209	0	35912	
4210	0	31388	
4211	0	28400	
4212	0	26674	
4213	0	26116	
4214	0	26652	
4215	0	27260	
4216	0	27920	
4217	0	28508	
4218	0	29136	
4219	0	30136	
4220	0	32500	
4221	0	36256	
4222	0	40044	
4223	0	43520	
4224	0	46408	
4225	0	48712	
4226	0	48744	
4227	0	45408	
4228	0	40848	
4229	0	37384	
4230	0	34960	
4231	0	32644	
4232	0	30176	
4233	0	27420	
4234	0	24884	
4235	0	23188	
4236	0	23028	
4237	0	24180	
4238	0	25612	
4239	0	27660	
4240	0	30368	
4241	0	33738	
4242	0	36704	
4243	0	38232	
4244	0	38540	
4245	0	37100	
4246	0	33592	
4247	0	28988	
4248	0	24332	
4249	0	21528	
4250	0	20188	
4251	0	20586	
4252	0	22636	
4253	0	25620	
4254	0	29044	
4255	0	32432	
4256	0	35924	
4257	0	38788	
4258	0	39620	
4259	0	39152	
4260	0	37100	
4261	0	33812	
4262	0	30572	
4263	0	27324	
4264	0	24848	
4265	0	23972	
4266	0	25352	
4267	0	27412	
4268	0	30360	
4269	0	34648	
4270	0	38340	
4271	0	40412	
4272	0	41640	
4273	0	41912	
4274	0	41212	
4275	0	39864	
4276	0	37876	
4277	0	35496	
4278	0	33080	
4279	0	31672	
4280	0	31376	
4281	0	31004	
4282	0	31188	
4283	0	32280	
4284	0	33072	
4285	0	33448	
4286	0	33064	
4287	0	31418	
4288	0	29620	
4289	0	28552	
4290	0	29008	
4291	0	30224	
4292	0	31060	
4293	0	31868	
4294	0	33914	
4295	0	36356	
4296	0	38720	
4297	0	41188	
4298	0	42736	
4299	0	43808	
4300	0	45056	
4301	0	46204	
4302	0	46484	
4303	0	46032	
4304	0	45236	
4305	0	42384	
4306	0	38200	
4307	0	34700	
4308	0	32040	
4309	0	29512	
4310	0	28190	
4311	0	28600	
4312	0	29496	
4313	0	29920	
4314	0	30448	
4315	0	30544	
4316	0	30084	
4317	0	29640	
4318	0	28856	
4319	0	27701	
4320	0	27660	
4321	0	29496	
4322	0	32480	
4323	0	35988	
4324	0	39872	
4325	0	42977	
4326	0	44280	
4327	0	43776	
4328	0	42252	
4329	0	39568	
4330	0	36362	
4331	0	33666	
4332	0	31892	
4333	0	31752	
4334	0	33016	
4335	0	33840	
4336	0	34020	
4337	0	33964	
4338	0	33752	
4339	0	32724	
4340	0	30960	
4341	0	29048	
4342	0	27560	
4343	0	26044	
4344	0	25425	
4345	0	26448	
4346	0	28536	
4347	0	30860	
4348	0	34360	
4349	0	37716	
4350	0	40208	
4351	0	41016	
4352	0	38632	
4353	0	35664	
4354	0	32944	
4355	0	31260	
4356	0	30724	
4357	0	30960	
4358	0	31576	
4359	0	31428	
4360	0	31508	
4361	0	32700	
4362	0	33964	
4363	0	34292	
4364	0	34104	
4365	0	33688	
4366	0	32788	
4367	0	32292	
4368	0	31836	
4369	0	31616	
4370	0	32152	
4371	0	32672	
4372	0	32648	
4373	0	31690	
4374	0	31832	
4375	0	33088	
4376	0	34352	
4377	0	35456	
4378	0	34960	
4379	0	32712	
4380	0	29828	
4381	0	27800	
4382	0	25988	
4383	0	24788	
4384	0	25064	
4385	0	25844	
4386	0	26956	
4387	0	28148	
4388	0	28756	
4389	0	29636	
4390	0	32660	
4391	0	36032	
4392	0	39028	
4393	0	40800	
4394	0	41200	
4395	0	40632	
4396	0	37280	
4397	0	33272	
4398	0	31120	
4399	0	30452	
4400	0	29868	
4401	0	29352	
4402	0	28904	
4403	0	27780	
4404	0	25916	
4405	0	23768	
4406	0	23292	
4407	0	23844	
4408	0	24720	
4409	0	26304	
4410	0	28800	
4411	0	31576	
4412	0	33956	
4413	0	36012	
4414	0	37604	
4415	0	38904	
4416	0	39792	
4417	0	40216	
4418	0	39968	
4419	0	39064	
4420	0	37868	
4421	0	37264	
4422	0	37692	
4423	0	37140	
4424	0	34844	
4425	0	32304	
4426	0	29920	
4427	0	28204	
4428	0	27624	
4429	0	28360	
4430	0	30284	
4431	0	32356	
4432	0	34548	
4433	0	36560	
4434	0	37520	
4435	0	37172	
4436	0	35336	
4437	0	31680	
4438	0	27760	
4439	0	25248	
4440	0	25460	
4441	0	28784	
4442	0	32960	
4443	0	37240	
4444	0	40644	
4445	0	42404	
4446	0	40824	
4447	0	35741	
4448	0	29908	
4449	0	27524	
4450	0	28428	
4451	0	31676	
4452	0	35756	
4453	0	38336	
4454	0	39114	
4455	0	38688	
4456	0	37032	
4457	0	34256	
4458	0	31240	
4459	0	28648	
4460	0	26105	
4461	0	23728	
4462	0	23276	
4463	0	24576	
4464	0	26080	
4465	0	27561	
4466	0	28520	
4467	0	28868	
4468	0	29552	
4469	0	30618	
4470	0	32138	
4471	0	33976	
4472	0	35804	
4473	0	36622	
4474	0	35808	
4475	0	34904	
4476	0	34744	
4477	0	34592	
4478	0	33840	
4479	0	33044	
4480	0	32968	
4481	0	34788	
4482	0	37480	
4483	0	38312	
4484	0	38080	
4485	0	36808	
4486	0	35668	
4487	0	35320	
4488	0	35488	
4489	0	36346	
4490	0	37372	
4491	0	38732	
4492	0	39888	
4493	0	39276	
4494	0	37312	
4495	0	35272	
4496	0	33352	
4497	0	32002	
4498	0	30138	
4499	0	27036	
4500	0	23360	
4501	0	21632	
4502	0	22736	
4503	0	24888	
4504	0	26888	
4505	0	29224	
4506	0	32744	
4507	0	35920	
4508	0	38184	
4509	0	41300	
4510	0	44778	
4511	0	47220	
4512	0	48384	
4513	0	47416	
4514	0	43320	
4515	0	37764	
4516	0	32760	
4517	0	29428	
4518	0	26420	
4519	0	24224	
4520	0	23136	
4521	0	23000	
4522	0	24328	
4523	0	26498	
4524	0	28248	
4525	0	29368	
4526	0	30336	
4527	0	30508	
4528	0	29828	
4529	0	29348	
4530	0	30674	
4531	0	33700	
4532	0	36800	
4533	0	39140	
4534	0	40216	
4535	0	40200	
4536	0	38628	
4537	0	35476	
4538	0	32516	
4539	0	30968	
4540	0	31752	
4541	0	34144	
4542	0	37208	
4543	0	39256	
4544	0	39368	
4545	0	38252	
4546	0	37360	
4547	0	35848	
4548	0	34268	
4549	0	33480	
4550	0	32704	
4551	0	32104	
4552	0	31348	
4553	0	31696	
4554	0	33282	
4555	0	33964	
4556	0	32698	
4557	0	31384	
4558	0	30900	
4559	0	30208	
4560	0	29128	
4561	0	28576	
4562	0	29648	
4563	0	31968	
4564	0	34672	
4565	0	37704	
4566	0	40432	
4567	0	42036	
4568	0	41836	
4569	0	40024	
4570	0	37496	
4571	0	35552	
4572	0	34444	
4573	0	32752	
4574	0	30936	
4575	0	29456	
4576	0	28216	
4577	0	28088	
4578	0	29316	
4579	0	31288	
4580	0	34592	
4581	0	37440	
4582	0	39376	
4583	0	40916	
4584	0	41496	
4585	0	40960	
4586	0	40616	
4587	0	39896	
4588	0	38860	
4589	0	37336	
4590	0	34980	
4591	0	31912	
4592	0	28540	
4593	0	25840	
4594	0	24556	
4595	0	25224	
4596	0	25330	
4597	0	24756	
4598	0	25988	
4599	0	28112	
4600	0	29944	
4601	0	31434	
4602	0	32908	
4603	0	35020	
4604	0	36520	
4605	0	36356	
4606	0	35692	
4607	0	35956	
4608	0	36336	
4609	0	34760	
4610	0	31432	
4611	0	28344	
4612	0	27234	
4613	0	26808	
4614	0	27081	
4615	0	28020	
4616	0	28740	
4617	0	29260	
4618	0	29884	
4619	0	30390	
4620	0	31332	
4621	0	32468	
4622	0	32672	
4623	0	31452	
4624	0	29714	
4625	0	28424	
4626	0	27704	
4627	0	29296	
4628	0	32752	
4629	0	35908	
4630	0	37464	
4631	0	37740	
4632	0	37120	
4633	0	35380	
4634	0	33028	
4635	0	30414	
4636	0	28720	
4637	0	28260	
4638	0	28360	
4639	0	29034	
4640	0	29856	
4641	0	30132	
4642	0	29604	
4643	0	28928	
4644	0	30248	
4645	0	33200	
4646	0	35708	
4647	0	37664	
4648	0	38364	
4649	0	37240	
4650	0	35512	
4651	0	34113	
4652	0	31532	
4653	0	30312	
4654	0	32056	
4655	0	35564	
4656	0	37448	
4657	0	35744	
4658	0	31760	
4659	0	27624	
4660	0	24464	
4661	0	23384	
4662	0	24168	
4663	0	27128	
4664	0	31948	
4665	0	37616	
4666	0	41952	
4667	0	44604	
4668	0	44896	
4669	0	43736	
4670	0	41572	
4671	0	36856	
4672	0	31364	
4673	0	27496	
4674	0	24758	
4675	0	23064	
4676	0	22316	
4677	0	21896	
4678	0	22308	
4679	0	23076	
4680	0	23544	
4681	0	24882	
4682	0	26848	
4683	0	29068	
4684	0	31428	
4685	0	33720	
4686	0	35820	
4687	0	36632	
4688	0	36196	
4689	0	35568	
4690	0	34344	
4691	0	33068	
4692	0	32106	
4693	0	31356	
4694	0	30448	
4695	0	29288	
4696	0	28091	
4697	0	27736	
4698	0	28708	
4699	0	30204	
4700	0	32300	
4701	0	34440	
4702	0	36108	
4703	0	36908	
4704	0	36232	
4705	0	34980	
4706	0	33814	
4707	0	32512	
4708	0	31112	
4709	0	30368	
4710	0	30248	
4711	0	31704	
4712	0	33704	
4713	0	34420	
4714	0	34488	
4715	0	33744	
4716	0	31844	
4717	0	29108	
4718	0	26341	
4719	0	24476	
4720	0	24276	
4721	0	25544	
4722	0	27544	
4723	0	29464	
4724	0	31304	
4725	0	32858	
4726	0	33750	
4727	0	33736	
4728	0	33504	
4729	0	34404	
4730	0	36160	
4731	0	37216	
4732	0	37508	
4733	0	37808	
4734	0	38752	
4735	0	39972	
4736	0	40474	
4737	0	39520	
4738	0	36448	
4739	0	32720	
4740	0	29842	
4741	0	28244	
4742	0	27476	
4743	0	27708	
4744	0	29070	
4745	0	31064	
4746	0	32328	
4747	0	31816	
4748	0	30616	
4749	0	30120	
4750	0	30304	
4751	0	31316	
4752	0	33248	
4753	0	35608	
4754	0	37160	
4755	0	36292	
4756	0	33256	
4757	0	30304	
4758	0	29334	
4759	0	30512	
4760	0	34608	
4761	0	39536	
4762	0	42368	
4763	0	42452	
4764	0	39960	
4765	0	35528	
4766	0	30412	
4767	0	25704	
4768	0	22972	
4769	0	22156	
4770	0	22524	
4771	0	23344	
4772	0	23780	
4773	0	23454	
4774	0	22890	
4775	0	23216	
4776	0	24858	
4777	0	28208	
4778	0	32788	
4779	0	36720	
4780	0	38800	
4781	0	39560	
4782	0	39560	
4783	0	38100	
4784	0	35076	
4785	0	32488	
4786	0	31244	
4787	0	30800	
4788	0	29496	
4789	0	28410	
4790	0	28272	
4791	0	28488	
4792	0	28276	
4793	0	28496	
4794	0	29248	
4795	0	31068	
4796	0	34036	
4797	0	37016	
4798	0	38984	
4799	0	39844	
4800	0	39092	
4801	0	37512	
4802	0	36116	
4803	0	36116	
4804	0	36680	
4805	0	36540	
4806	0	35760	
4807	0	33466	
4808	0	30936	
4809	0	28748	
4810	0	27484	
4811	0	27076	
4812	0	26940	
4813	0	26940	
4814	0	28040	
4815	0	29980	
4816	0	32324	
4817	0	33980	
4818	0	35216	
4819	0	36108	
4820	0	37536	
4821	0	38116	
4822	0	38176	
4823	0	39536	
4824	0	41056	
4825	0	40896	
4826	0	39856	
4827	0	39296	
4828	0	38280	
4829	0	35552	
4830	0	31944	
4831	0	28764	
4832	0	26936	
4833	0	25752	
4834	0	25554	
4835	0	26528	
4836	0	28676	
4837	0	30804	
4838	0	31896	
4839	0	32316	
4840	0	32050	
4841	0	30600	
4842	0	30052	
4843	0	30020	
4844	0	30712	
4845	0	33100	
4846	0	35272	
4847	0	35900	
4848	0	35376	
4849	0	33356	
4850	0	30890	
4851	0	29824	
4852	0	29884	
4853	0	29182	
4854	0	28020	
4855	0	27664	
4856	0	27560	
4857	0	27736	
4858	0	28268	
4859	0	29692	
4860	0	31632	
4861	0	33280	
4862	0	34468	
4863	0	35432	
4864	0	35224	
4865	0	34260	
4866	0	33464	
4867	0	32760	
4868	0	32040	
4869	0	31576	
4870	0	32384	
4871	0	34264	
4872	0	36418	
4873	0	37992	
4874	0	38992	
4875	0	39436	
4876	0	38888	
4877	0	37288	
4878	0	35504	
4879	0	33828	
4880	0	31912	
4881	0	30520	
4882	0	29784	
4883	0	28812	
4884	0	27432	
4885	0	26340	
4886	0	25904	
4887	0	25970	
4888	0	26276	
4889	0	26314	
4890	0	27060	
4891	0	28680	
4892	0	31036	
4893	0	34496	
4894	0	38752	
4895	0	42752	
4896	0	45256	
4897	0	45688	
4898	0	44380	
4899	0	40764	
4900	0	36516	
4901	0	32650	
4902	0	30092	
4903	0	30400	
4904	0	32936	
4905	0	35672	
4906	0	37064	
4907	0	36610	
4908	0	35176	
4909	0	33140	
4910	0	31584	
4911	0	30720	
4912	0	29093	
4913	0	27964	
4914	0	27892	
4915	0	28012	
4916	0	28280	
4917	0	28912	
4918	0	29288	
4919	0	29336	
4920	0	29392	
4921	0	29596	
4922	0	29716	
4923	0	29840	
4924	0	30956	
4925	0	32308	
4926	0	34256	
4927	0	36952	
4928	0	39600	
4929	0	41908	
4930	0	42960	
4931	0	42148	
4932	0	39640	
4933	0	36304	
4934	0	32592	
4935	0	27864	
4936	0	23960	
4937	0	21712	
4938	0	21200	
4939	0	22936	
4940	0	26628	
4941	0	30772	
4942	0	35936	
4943	0	41040	
4944	0	44000	
4945	0	44832	
4946	0	45324	
4947	0	44968	
4948	0	42588	
4949	0	38912	
4950	0	35216	
4951	0	32788	
4952	0	31492	
4953	0	30024	
4954	0	29496	
4955	0	30040	
4956	0	31272	
4957	0	33114	
4958	0	34608	
4959	0	35936	
4960	0	36472	
4961	0	35456	
4962	0	33080	
4963	0	30930	
4964	0	29700	
4965	0	27930	
4966	0	27676	
4967	0	28136	
4968	0	28012	
4969	0	27528	
4970	0	26956	
4971	0	27544	
4972	0	29412	
4973	0	31200	
4974	0	32408	
4975	0	32020	
4976	0	30288	
4977	0	28264	
4978	0	26772	
4979	0	27180	
4980	0	29668	
4981	0	33660	
4982	0	38234	
4983	0	41796	
4984	0	44080	
4985	0	43012	
4986	0	40520	
4987	0	38936	
4988	0	36408	
4989	0	32628	
4990	0	29536	
4991	0	27488	
4992	0	26088	
4993	0	26468	
4994	0	28088	
4995	0	29744	
4996	0	31336	
4997	0	32504	
4998	0	33112	
4999	0	33620	
5000	0	33292	
5001	0	33544	
5002	0	34832	
5003	0	36300	
5004	0	37360	
5005	0	37316	
5006	0	36472	
5007	0	36060	
5008	0	36188	
5009	0	35392	
5010	0	33788	
5011	0	32724	
5012	0	31536	
5013	0	29844	
5014	0	28420	
5015	0	28084	
5016	0	26874	
5017	0	25696	
5018	0	26976	
5019	0	29356	
5020	0	32316	
5021	0	35440	
5022	0	37768	
5023	0	39300	
5024	0	40480	
5025	0	41460	
5026	0	41248	
5027	0	39564	
5028	0	36916	
5029	0	33392	
5030	0	28788	
5031	0	25244	
5032	0	23100	
5033	0	22821	
5034	0	24518	
5035	0	26114	
5036	0	27068	
5037	0	29392	
5038	0	32496	
5039	0	35740	
5040	0	38320	
5041	0	39456	
5042	0	39568	
5043	0	39676	
5044	0	39800	
5045	0	38076	
5046	0	35624	
5047	0	32988	
5048	0	30704	
5049	0	29264	
5050	0	29056	
5051	0	29820	
5052	0	31138	
5053	0	32672	
5054	0	33644	
5055	0	33998	
5056	0	33288	
5057	0	31300	
5058	0	29442	
5059	0	29152	
5060	0	30048	
5061	0	31440	
5062	0	32808	
5063	0	35476	
5064	0	39272	
5065	0	43072	
5066	0	45196	
5067	0	45808	
5068	0	45088	
5069	0	42368	
5070	0	38320	
5071	0	34304	
5072	0	31428	
5073	0	31012	
5074	0	32716	
5075	0	34256	
5076	0	33684	
5077	0	32464	
5078	0	30920	
5079	0	29036	
5080	0	27296	
5081	0	25620	
5082	0	24600	
5083	0	24600	
5084	0	24928	
5085	0	25864	
5086	0	27868	
5087	0	30256	
5088	0	31992	
5089	0	33192	
5090	0	34748	
5091	0	36528	
5092	0	37608	
5093	0	37932	
5094	0	37528	
5095	0	36800	
5096	0	34672	
5097	0	30412	
5098	0	26924	
5099	0	24848	
5100	0	24392	
5101	0	26824	
5102	0	30552	
5103	0	34264	
5104	0	37332	
5105	0	39424	
5106	0	40888	
5107	0	40784	
5108	0	39248	
5109	0	37368	
5110	0	35312	
5111	0	33644	
5112	0	33328	
5113	0	32792	
5114	0	32148	
5115	0	31696	
5116	0	30988	
5117	0	29456	
5118	0	27664	
5119	0	26564	
5120	0	26748	
5121	0	27562	
5122	0	28956	
5123	0	31180	
5124	0	33744	
5125	0	35168	
5126	0	34108	
5127	0	33472	
5128	0	33420	
5129	0	33216	
5130	0	33736	
5131	0	34836	
5132	0	35808	
5133	0	36304	
5134	0	35734	
5135	0	33936	
5136	0	31268	
5137	0	29720	
5138	0	29044	
5139	0	28040	
5140	0	28872	
5141	0	31460	
5142	0	34204	
5143	0	35484	
5144	0	35584	
5145	0	35428	
5146	0	35312	
5147	0	35412	
5148	0	36012	
5149	0	36240	
5150	0	35780	
5151	0	35276	
5152	0	34976	
5153	0	34696	
5154	0	34240	
5155	0	33032	
5156	0	31400	
5157	0	29540	
5158	0	29032	
5159	0	30204	
5160	0	32100	
5161	0	33736	
5162	0	34884	
5163	0	35592	
5164	0	35800	
5165	0	34960	
5166	0	33872	
5167	0	34592	
5168	0	36384	
5169	0	38568	
5170	0	40456	
5171	0	41504	
5172	0	41364	
5173	0	39084	
5174	0	35760	
5175	0	31832	
5176	0	28964	
5177	0	28040	
5178	0	28192	
5179	0	28764	
5180	0	29680	
5181	0	30972	
5182	0	32580	
5183	0	33956	
5184	0	35008	
5185	0	35960	
5186	0	36316	
5187	0	35948	
5188	0	35544	
5189	0	35308	
5190	0	35612	
5191	0	36860	
5192	0	38512	
5193	0	39476	
5194	0	40112	
5195	0	40456	
5196	0	40332	
5197	0	38936	
5198	0	36048	
5199	0	32748	
5200	0	28976	
5201	0	25488	
5202	0	23744	
5203	0	24040	
5204	0	25540	
5205	0	27272	
5206	0	28696	
5207	0	31336	
5208	0	35420	
5209	0	39552	
5210	0	42184	
5211	0	43440	
5212	0	44456	
5213	0	45336	
5214	0	46152	
5215	0	46096	
5216	0	45216	
5217	0	44432	
5218	0	42626	
5219	0	38720	
5220	0	34008	
5221	0	28148	
5222	0	22394	
5223	0	18188	
5224	0	17000	
5225	0	18436	
5226	0	21224	
5227	0	25340	
5228	0	31132	
5229	0	36112	
5230	0	38000	
5231	0	38184	
5232	0	38108	
5233	0	37294	
5234	0	36464	
5235	0	35608	
5236	0	33904	
5237	0	31760	
5238	0	30388	
5239	0	29448	
5240	0	28492	
5241	0	28744	
5242	0	30528	
5243	0	34136	
5244	0	36792	
5245	0	37904	
5246	0	37840	
5247	0	35976	
5248	0	32380	
5249	0	27936	
5250	0	24464	
5251	0	22972	
5252	0	23256	
5253	0	25044	
5254	0	28177	
5255	0	30956	
5256	0	32856	
5257	0	34224	
5258	0	34568	
5259	0	34088	
5260	0	32888	
5261	0	31184	
5262	0	30284	
5263	0	30136	
5264	0	29564	
5265	0	28848	
5266	0	28360	
5267	0	28788	
5268	0	31306	
5269	0	34540	
5270	0	37248	
5271	0	39200	
5272	0	40480	
5273	0	41400	
5274	0	42468	
5275	0	44064	
5276	0	44776	
5277	0	44408	
5278	0	42752	
5279	0	39656	
5280	0	35808	
5281	0	30512	
5282	0	25332	
5283	0	22812	
5284	0	22148	
5285	0	23538	
5286	0	25928	
5287	0	28640	
5288	0	31340	
5289	0	32664	
5290	0	33100	
5291	0	33532	
5292	0	33644	
5293	0	33480	
5294	0	32640	
5295	0	31856	
5296	0	31216	
5297	0	30608	
5298	0	29924	
5299	0	28864	
5300	0	28236	
5301	0	29672	
5302	0	32304	
5303	0	34548	
5304	0	35384	
5305	0	34720	
5306	0	33456	
5307	0	31396	
5308	0	28716	
5309	0	26828	
5310	0	27064	
5311	0	28944	
5312	0	30568	
5313	0	31584	
5314	0	32544	
5315	0	33412	
5316	0	33540	
5317	0	33664	
5318	0	34768	
5319	0	36560	
5320	0	37896	
5321	0	38168	
5322	0	38048	
5323	0	37428	
5324	0	36000	
5325	0	34096	
5326	0	32252	
5327	0	29026	
5328	0	25294	
5329	0	23300	
5330	0	23616	
5331	0	25720	
5332	0	29382	
5333	0	34408	
5334	0	39552	
5335	0	42792	
5336	0	44100	
5337	0	44612	
5338	0	44730	
5339	0	44620	
5340	0	44260	
5341	0	43192	
5342	0	40696	
5343	0	36236	
5344	0	31008	
5345	0	26392	
5346	0	23408	
5347	0	22540	
5348	0	22458	
5349	0	23376	
5350	0	24632	
5351	0	25328	
5352	0	26144	
5353	0	27688	
5354	0	29644	
5355	0	31346	
5356	0	32952	
5357	0	34524	
5358	0	35040	
5359	0	33564	
5360	0	31476	
5361	0	30512	
5362	0	30864	
5363	0	32240	
5364	0	34000	
5365	0	35752	
5366	0	36084	
5367	0	34644	
5368	0	32916	
5369	0	32464	
5370	0	32876	
5371	0	33232	
5372	0	34392	
5373	0	36680	
5374	0	38248	
5375	0	39060	
5376	0	40992	
5377	0	43500	
5378	0	45336	
5379	0	44760	
5380	0	41840	
5381	0	38308	
5382	0	33856	
5383	0	28496	
5384	0	23904	
5385	0	21264	
5386	0	20688	
5387	0	21320	
5388	0	22176	
5389	0	24116	
5390	0	27160	
5391	0	30336	
5392	0	33200	
5393	0	36260	
5394	0	38968	
5395	0	40340	
5396	0	41184	
5397	0	41376	
5398	0	40244	
5399	0	37780	
5400	0	34748	
5401	0	33088	
5402	0	32778	
5403	0	33444	
5404	0	34184	
5405	0	33544	
5406	0	32668	
5407	0	32588	
5408	0	32912	
5409	0	33184	
5410	0	34194	
5411	0	36248	
5412	0	38304	
5413	0	39288	
5414	0	38516	
5415	0	36644	
5416	0	34688	
5417	0	33232	
5418	0	32520	
5419	0	32112	
5420	0	31578	
5421	0	33464	
5422	0	35728	
5423	0	36800	
5424	0	37208	
5425	0	37596	
5426	0	37382	
5427	0	37100	
5428	0	36588	
5429	0	36204	
5430	0	36328	
5431	0	36560	
5432	0	36808	
5433	0	36456	
5434	0	35808	
5435	0	35552	
5436	0	34956	
5437	0	34178	
5438	0	32412	
5439	0	31264	
5440	0	30436	
5441	0	29176	
5442	0	28404	
5443	0	28704	
5444	0	29753	
5445	0	30944	
5446	0	31940	
5447	0	32808	
5448	0	34100	
5449	0	35788	
5450	0	37300	
5451	0	39120	
5452	0	41524	
5453	0	43192	
5454	0	43400	
5455	0	42676	
5456	0	40848	
5457	0	38208	
5458	0	34376	
5459	0	30008	
5460	0	26348	
5461	0	23072	
5462	0	20768	
5463	0	19250	
5464	0	18860	
5465	0	19716	
5466	0	22108	
5467	0	25000	
5468	0	27536	
5469	0	29329	
5470	0	30412	
5471	0	32044	
5472	0	34346	
5473	0	36980	
5474	0	39488	
5475	0	41856	
5476	0	43028	
5477	0	42868	
5478	0	42108	
5479	0	40716	
5480	0	38896	
5481	0	38064	
5482	0	38456	
5483	0	39296	
5484	0	39600	
5485	0	38896	
5486	0	37404	
5487	0	34796	
5488	0	31330	
5489	0	27820	
5490	0	25602	
5491	0	24136	
5492	0	23356	
5493	0	23193	
5494	0	22864	
5495	0	23002	
5496	0	24220	
5497	0	26192	
5498	0	27688	
5499	0	29102	
5500	0	30768	
5501	0	32780	
5502	0	34968	
5503	0	36692	
5504	0	37948	
5505	0	38988	
5506	0	39284	
5507	0	37736	
5508	0	34260	
5509	0	30940	
5510	0	28738	
5511	0	27176	
5512	0	26024	
5513	0	26412	
5514	0	27520	
5515	0	28404	
5516	0	28346	
5517	0	28692	
5518	0	29296	
5519	0	29028	
5520	0	28032	
5521	0	27140	
5522	0	27972	
5523	0	30360	
5524	0	32740	
5525	0	34600	
5526	0	35660	
5527	0	35968	
5528	0	35656	
5529	0	34392	
5530	0	32520	
5531	0	30460	
5532	0	29438	
5533	0	30640	
5534	0	32564	
5535	0	34412	
5536	0	36224	
5537	0	37476	
5538	0	37236	
5539	0	35022	
5540	0	31248	
5541	0	27480	
5542	0	24668	
5543	0	22528	
5544	0	21760	
5545	0	22334	
5546	0	24436	
5547	0	27122	
5548	0	29384	
5549	0	30460	
5550	0	30976	
5551	0	32656	
5552	0	34816	
5553	0	36080	
5554	0	37264	
5555	0	38232	
5556	0	38308	
5557	0	37500	
5558	0	36416	
5559	0	35316	
5560	0	33788	
5561	0	32084	
5562	0	30852	
5563	0	30036	
5564	0	30256	
5565	0	31668	
5566	0	32748	
5567	0	32972	
5568	0	32608	
5569	0	32144	
5570	0	31372	
5571	0	31008	
5572	0	31504	
5573	0	33252	
5574	0	35648	
5575	0	37576	
5576	0	38260	
5577	0	37172	
5578	0	34992	
5579	0	31744	
5580	0	28136	
5581	0	25288	
5582	0	23506	
5583	0	23584	
5584	0	25324	
5585	0	27352	
5586	0	28592	
5587	0	29172	
5588	0	29252	
5589	0	28512	
5590	0	27456	
5591	0	27240	
5592	0	27916	
5593	0	29664	
5594	0	32424	
5595	0	35880	
5596	0	39236	
5597	0	41684	
5598	0	42658	
5599	0	42280	
5600	0	40596	
5601	0	38756	
5602	0	37204	
5603	0	35532	
5604	0	33912	
5605	0	32212	
5606	0	30732	
5607	0	30240	
5608	0	30500	
5609	0	31260	
5610	0	31264	
5611	0	30588	
5612	0	29789	
5613	0	28118	
5614	0	26600	
5615	0	25544	
5616	0	25036	
5617	0	25682	
5618	0	27460	
5619	0	29428	
5620	0	31552	
5621	0	32908	
5622	0	34056	
5623	0	35572	
5624	0	36864	
5625	0	37756	
5626	0	38136	
5627	0	37560	
5628	0	36272	
5629	0	34848	
5630	0	33472	
5631	0	32464	
5632	0	32088	
5633	0	31736	
5634	0	32896	
5635	0	34812	
5636	0	36600	
5637	0	37040	
5638	0	35160	
5639	0	32874	
5640	0	31044	
5641	0	29080	
5642	0	26516	
5643	0	25500	
5644	0	26772	
5645	0	28876	
5646	0	31288	
5647	0	33300	
5648	0	34004	
5649	0	33096	
5650	0	31416	
5651	0	30580	
5652	0	30316	
5653	0	30060	
5654	0	29564	
5655	0	29160	
5656	0	29088	
5657	0	28676	
5658	0	27396	
5659	0	26648	
5660	0	27444	
5661	0	29292	
5662	0	30536	
5663	0	31316	
5664	0	32234	
5665	0	33200	
5666	0	34840	
5667	0	37736	
5668	0	40976	
5669	0	43314	
5670	0	44448	
5671	0	43636	
5672	0	40764	
5673	0	37560	
5674	0	34400	
5675	0	30708	
5676	0	27472	
5677	0	25252	
5678	0	24664	
5679	0	25106	
5680	0	25520	
5681	0	25930	
5682	0	26268	
5683	0	26600	
5684	0	27752	
5685	0	29688	
5686	0	31688	
5687	0	33912	
5688	0	36016	
5689	0	38004	
5690	0	39732	
5691	0	40600	
5692	0	40244	
5693	0	38740	
5694	0	36076	
5695	0	33392	
5696	0	31968	
5697	0	31696	
5698	0	31388	
5699	0	30724	
5700	0	29016	
5701	0	26936	
5702	0	25296	
5703	0	25744	
5704	0	28312	
5705	0	32140	
5706	0	36992	
5707	0	40852	
5708	0	42956	
5709	0	42908	
5710	0	41540	
5711	0	40424	
5712	0	37736	
5713	0	33660	
5714	0	29864	
5715	0	26378	
5716	0	24020	
5717	0	22578	
5718	0	21448	
5719	0	20816	
5720	0	21032	
5721	0	23240	
5722	0	27576	
5723	0	32988	
5724	0	38488	
5725	0	42448	
5726	0	43888	
5727	0	42584	
5728	0	40688	
5729	0	37916	
5730	0	34952	
5731	0	33376	
5732	0	32944	
5733	0	32580	
5734	0	31952	
5735	0	31008	
5736	0	30648	
5737	0	30536	
5738	0	30600	
5739	0	30632	
5740	0	30260	
5741	0	30112	
5742	0	30856	
5743	0	32484	
5744	0	33648	
5745	0	35592	
5746	0	37876	
5747	0	39376	
5748	0	39200	
5749	0	38136	
5750	0	37756	
5751	0	37192	
5752	0	35728	
5753	0	33860	
5754	0	33081	
5755	0	33192	
5756	0	32548	
5757	0	30644	
5758	0	28092	
5759	0	25664	
5760	0	24030	
5761	0	24312	
5762	0	27788	
5763	0	32064	
5764	0	35088	
5765	0	38224	
5766	0	42080	
5767	0	45072	
5768	0	45304	
5769	0	42752	
5770	0	39400	
5771	0	35820	
5772	0	31552	
5773	0	27644	
5774	0	24856	
5775	0	22568	
5776	0	20792	
5777	0	20880	
5778	0	23224	
5779	0	26452	
5780	0	30464	
5781	0	35628	
5782	0	40660	
5783	0	43652	
5784	0	43572	
5785	0	41380	
5786	0	37888	
5787	0	33476	
5788	0	28452	
5789	0	24730	
5790	0	22996	
5791	0	23098	
5792	0	24452	
5793	0	26004	
5794	0	27368	
5795	0	28608	
5796	0	28852	
5797	0	28664	
5798	0	29144	
5799	0	29612	
5800	0	30068	
5801	0	30768	
5802	0	32312	
5803	0	34608	
5804	0	36416	
5805	0	37688	
5806	0	38620	
5807	0	39072	
5808	0	38868	
5809	0	37284	
5810	0	34980	
5811	0	33080	
5812	0	31652	
5813	0	30832	
5814	0	30908	
5815	0	31156	
5816	0	31268	
5817	0	31712	
5818	0	32584	
5819	0	33528	
5820	0	34540	
5821	0	35162	
5822	0	36072	
5823	0	37248	
5824	0	37016	
5825	0	34448	
5826	0	31460	
5827	0	29392	
5828	0	28028	
5829	0	27850	
5830	0	29953	
5831	0	32236	
5832	0	33060	
5833	0	33240	
5834	0	33688	
5835	0	34440	
5836	0	34510	
5837	0	34412	
5838	0	33940	
5839	0	33048	
5840	0	32332	
5841	0	32080	
5842	0	31848	
5843	0	31754	
5844	0	32120	
5845	0	33824	
5846	0	35640	
5847	0	36208	
5848	0	35952	
5849	0	35688	
5850	0	34940	
5851	0	33560	
5852	0	31656	
5853	0	30416	
5854	0	29216	
5855	0	28764	
5856	0	30016	
5857	0	32004	
5858	0	35088	
5859	0	38904	
5860	0	41760	
5861	0	42408	
5862	0	40864	
5863	0	37596	
5864	0	33696	
5865	0	29488	
5866	0	26704	
5867	0	26020	
5868	0	26692	
5869	0	28660	
5870	0	30458	
5871	0	31528	
5872	0	32432	
5873	0	33941	
5874	0	35320	
5875	0	36016	
5876	0	36942	
5877	0	38052	
5878	0	38712	
5879	0	38116	
5880	0	36892	
5881	0	34972	
5882	0	31328	
5883	0	27816	
5884	0	25572	
5885	0	24660	
5886	0	24984	
5887	0	26628	
5888	0	29016	
5889	0	31210	
5890	0	32266	
5891	0	32280	
5892	0	32304	
5893	0	33692	
5894	0	35412	
5895	0	36788	
5896	0	38264	
5897	0	38020	
5898	0	35796	
5899	0	33044	
5900	0	31400	
5901	0	31776	
5902	0	33500	
5903	0	36348	
5904	0	38728	
5905	0	38680	
5906	0	36288	
5907	0	32408	
5908	0	29320	
5909	0	27184	
5910	0	26828	
5911	0	28660	
5912	0	30744	
5913	0	32784	
5914	0	34540	
5915	0	36216	
5916	0	36864	
5917	0	35892	
5918	0	33920	
5919	0	32784	
5920	0	32612	
5921	0	31780	
5922	0	30650	
5923	0	30388	
5924	0	30948	
5925	0	32276	
5926	0	33744	
5927	0	35388	
5928	0	37664	
5929	0	40452	
5930	0	42736	
5931	0	43384	
5932	0	42512	
5933	0	39580	
5934	0	33036	
5935	0	25244	
5936	0	21333	
5937	0	20476	
5938	0	20932	
5939	0	23574	
5940	0	28060	
5941	0	33068	
5942	0	37076	
5943	0	40400	
5944	0	43024	
5945	0	44584	
5946	0	44344	
5947	0	41464	
5948	0	37840	
5949	0	35244	
5950	0	33888	
5951	0	33000	
5952	0	31800	
5953	0	30722	
5954	0	29956	
5955	0	29068	
5956	0	28906	
5957	0	28328	
5958	0	27164	
5959	0	26020	
5960	0	26248	
5961	0	28652	
5962	0	33380	
5963	0	37940	
5964	0	40736	
5965	0	41824	
5966	0	42416	
5967	0	42024	
5968	0	39064	
5969	0	34160	
5970	0	28748	
5971	0	25572	
5972	0	24164	
5973	0	23816	
5974	0	23106	
5975	0	21920	
5976	0	21648	
5977	0	23012	
5978	0	24668	
5979	0	26300	
5980	0	28488	
5981	0	31264	
5982	0	33642	
5983	0	35448	
5984	0	37010	
5985	0	38360	
5986	0	39664	
5987	0	41192	
5988	0	43800	
5989	0	46352	
5990	0	46644	
5991	0	44544	
5992	0	40368	
5993	0	36060	
5994	0	31888	
5995	0	28044	
5996	0	25628	
5997	0	24024	
5998	0	23058	
5999	0	23044	
6000	0	23820	
6001	0	25690	
6002	0	28164	
6003	0	30924	
6004	0	33080	
6005	0	34064	
6006	0	34188	
6007	0	34544	
6008	0	35392	
6009	0	35844	
6010	0	35632	
6011	0	35589	
6012	0	35852	
6013	0	36600	
6014	0	36448	
6015	0	35600	
6016	0	34316	
6017	0	32344	
6018	0	29936	
6019	0	27784	
6020	0	26560	
6021	0	26388	
6022	0	28336	
6023	0	32592	
6024	0	37416	
6025	0	40968	
6026	0	43744	
6027	0	45992	
6028	0	45528	
6029	0	41768	
6030	0	37460	
6031	0	33284	
6032	0	29608	
6033	0	27516	
6034	0	26120	
6035	0	25828	
6036	0	26216	
6037	0	26314	
6038	0	26704	
6039	0	28552	
6040	0	31160	
6041	0	33428	
6042	0	36168	
6043	0	38312	
6044	0	39556	
6045	0	38508	
6046	0	35980	
6047	0	34096	
6048	0	33624	
6049	0	33556	
6050	0	33648	
6051	0	33372	
6052	0	32288	
6053	0	31016	
6054	0	30912	
6055	0	31976	
6056	0	34268	
6057	0	36484	
6058	0	37644	
6059	0	38412	
6060	0	38192	
6061	0	36848	
6062	0	35388	
6063	0	34412	
6064	0	32688	
6065	0	31876	
6066	0	32804	
6067	0	34468	
6068	0	36128	
6069	0	37368	
6070	0	38108	
6071	0	38468	
6072	0	37688	
6073	0	36520	
6074	0	36432	
6075	0	36712	
6076	0	37040	
6077	0	36944	
6078	0	36516	
6079	0	36080	
6080	0	35332	
6081	0	34632	
6082	0	34408	
6083	0	34028	
6084	0	32768	
6085	0	32298	
6086	0	34140	
6087	0	36676	
6088	0	38280	
6089	0	39536	
6090	0	40572	
6091	0	39828	
6092	0	37412	
6093	0	34912	
6094	0	33888	
6095	0	34220	
6096	0	34280	
6097	0	33796	
6098	0	33028	
6099	0	32008	
6100	0	31024	
6101	0	30044	
6102	0	29432	
6103	0	29660	
6104	0	31096	
6105	0	33600	
6106	0	36048	
6107	0	38052	
6108	0	39424	
6109	0	39560	
6110	0	38020	
6111	0	34736	
6112	0	30444	
6113	0	27004	
6114	0	23760	
6115	0	20760	
6116	0	18866	
6117	0	18028	
6118	0	18648	
6119	0	20716	
6120	0	23504	
6121	0	27104	
6122	0	31076	
6123	0	34184	
6124	0	37092	
6125	0	39864	
6126	0	41932	
6127	0	42540	
6128	0	41172	
6129	0	38408	
6130	0	35792	
6131	0	33692	
6132	0	31832	
6133	0	30540	
6134	0	30408	
6135	0	30588	
6136	0	31010	
6137	0	31288	
6138	0	31300	
6139	0	30536	
6140	0	28912	
6141	0	27482	
6142	0	26596	
6143	0	26540	
6144	0	27404	
6145	0	29392	
6146	0	32480	
6147	0	35152	
6148	0	37264	
6149	0	38960	
6150	0	39808	
6151	0	38652	
6152	0	36504	
6153	0	34796	
6154	0	33621	
6155	0	31408	
6156	0	28324	
6157	0	26160	
6158	0	25624	
6159	0	25948	
6160	0	27688	
6161	0	29360	
6162	0	30260	
6163	0	31432	
6164	0	33372	
6165	0	34800	
6166	0	35930	
6167	0	36396	
6168	0	36776	
6169	0	37074	
6170	0	37008	
6171	0	36384	
6172	0	34536	
6173	0	32324	
6174	0	31656	
6175	0	30932	
6176	0	30848	
6177	0	32704	
6178	0	34464	
6179	0	35336	
6180	0	34924	
6181	0	33804	
6182	0	32864	
6183	0	32097	
6184	0	32000	
6185	0	31736	
6186	0	30996	
6187	0	30888	
6188	0	30896	
6189	0	30548	
6190	0	30172	
6191	0	30288	
6192	0	31416	
6193	0	31832	
6194	0	30804	
6195	0	29296	
6196	0	28568	
6197	0	30232	
6198	0	33076	
6199	0	34258	
6200	0	34920	
6201	0	36408	
6202	0	37824	
6203	0	38292	
6204	0	36916	
6205	0	34684	
6206	0	32912	
6207	0	31912	
6208	0	31048	
6209	0	30580	
6210	0	30452	
6211	0	30712	
6212	0	31824	
6213	0	32800	
6214	0	33440	
6215	0	33732	
6216	0	32736	
6217	0	31388	
6218	0	30008	
6219	0	29152	
6220	0	29244	
6221	0	30876	
6222	0	34072	
6223	0	37152	
6224	0	38960	
6225	0	39736	
6226	0	40064	
6227	0	40140	
6228	0	39124	
6229	0	37068	
6230	0	34652	
6231	0	31172	
6232	0	27844	
6233	0	26016	
6234	0	25520	
6235	0	26640	
6236	0	29564	
6237	0	33789	
6238	0	37296	
6239	0	39804	
6240	0	41708	
6241	0	41568	
6242	0	39036	
6243	0	34768	
6244	0	30192	
6245	0	25788	
6246	0	22808	
6247	0	21992	
6248	0	22865	
6249	0	24720	
6250	0	28066	
6251	0	30848	
6252	0	31844	
6253	0	33256	
6254	0	34172	
6255	0	35220	
6256	0	37184	
6257	0	39280	
6258	0	41236	
6259	0	41492	
6260	0	40520	
6261	0	39464	
6262	0	38176	
6263	0	36160	
6264	0	32756	
6265	0	29068	
6266	0	25684	
6267	0	23504	
6268	0	22842	
6269	0	22750	
6270	0	23580	
6271	0	26128	
6272	0	29176	
6273	0	32160	
6274	0	34560	
6275	0	37076	
6276	0	38800	
6277	0	39164	
6278	0	38736	
6279	0	37744	
6280	0	36136	
6281	0	33896	
6282	0	32288	
6283	0	32644	
6284	0	33468	
6285	0	34116	
6286	0	34840	
6287	0	35544	
6288	0	35776	
6289	0	34848	
6290	0	32808	
6291	0	31088	
6292	0	30368	
6293	0	31232	
6294	0	32952	
6295	0	34608	
6296	0	36296	
6297	0	38568	
6298	0	40872	
6299	0	41600	
6300	0	41528	
6301	0	41388	
6302	0	39724	
6303	0	37780	
6304	0	37076	
6305	0	36700	
6306	0	35676	
6307	0	33852	
6308	0	32256	
6309	0	30934	
6310	0	29628	
6311	0	28612	
6312	0	28864	
6313	0	29760	
6314	0	30857	
6315	0	32700	
6316	0	34920	
6317	0	37330	
6318	0	39400	
6319	0	40064	
6320	0	39320	
6321	0	37692	
6322	0	35244	
6323	0	31720	
6324	0	28316	
6325	0	25896	
6326	0	24524	
6327	0	24410	
6328	0	25626	
6329	0	27500	
6330	0	28932	
6331	0	30516	
6332	0	31764	
6333	0	32868	
6334	0	34464	
6335	0	36892	
6336	0	39132	
6337	0	40056	
6338	0	39900	
6339	0	39364	
6340	0	38920	
6341	0	38560	
6342	0	38570	
6343	0	38140	
6344	0	36620	
6345	0	34904	
6346	0	32584	
6347	0	29604	
6348	0	27828	
6349	0	27988	
6350	0	29696	
6351	0	31780	
6352	0	33904	
6353	0	35392	
6354	0	35248	
6355	0	33668	
6356	0	31288	
6357	0	28956	
6358	0	27296	
6359	0	26756	
6360	0	28160	
6361	0	31088	
6362	0	34544	
6363	0	38004	
6364	0	40148	
6365	0	40288	
6366	0	39152	
6367	0	36784	
6368	0	34472	
6369	0	33068	
6370	0	32392	
6371	0	32876	
6372	0	34736	
6373	0	36200	
6374	0	37516	
6375	0	38332	
6376	0	37826	
6377	0	35800	
6378	0	32984	
6379	0	30444	
6380	0	28592	
6381	0	27196	
6382	0	27900	
6383	0	29392	
6384	0	30784	
6385	0	32208	
6386	0	32936	
6387	0	32020	
6388	0	30224	
6389	0	28964	
6390	0	28672	
6391	0	28780	
6392	0	28112	
6393	0	26904	
6394	0	26600	
6395	0	27096	
6396	0	27196	
6397	0	27172	
6398	0	28340	
6399	0	30052	
6400	0	31250	
6401	0	30900	
6402	0	28848	
6403	0	27072	
6404	0	25692	
6405	0	24772	
6406	0	25242	
6407	0	27488	
6408	0	31284	
6409	0	35306	
6410	0	38360	
6411	0	40344	
6412	0	41032	
6413	0	40080	
6414	0	37672	
6415	0	36424	
6416	0	35160	
6417	0	33172	
6418	0	31144	
6419	0	30864	
6420	0	31804	
6421	0	32876	
6422	0	33376	
6423	0	33320	
6424	0	32324	
6425	0	30924	
6426	0	29109	
6427	0	28148	
6428	0	28504	
6429	0	30584	
6430	0	34050	
6431	0	36672	
6432	0	37648	
6433	0	36200	
6434	0	32916	
6435	0	28840	
6436	0	25312	
6437	0	24616	
6438	0	26364	
6439	0	27884	
6440	0	29076	
6441	0	30760	
6442	0	31752	
6443	0	30944	
6444	0	29324	
6445	0	27716	
6446	0	27488	
6447	0	28360	
6448	0	30124	
6449	0	32050	
6450	0	33208	
6451	0	33736	
6452	0	34344	
6453	0	35332	
6454	0	36348	
6455	0	36952	
6456	0	36636	
6457	0	35441	
6458	0	34100	
6459	0	31680	
6460	0	29848	
6461	0	29048	
6462	0	29108	
6463	0	29720	
6464	0	30732	
6465	0	31744	
6466	0	31904	
6467	0	31300	
6468	0	30624	
6469	0	29840	
6470	0	29416	
6471	0	29472	
6472	0	30580	
6473	0	32706	
6474	0	34464	
6475	0	35076	
6476	0	34408	
6477	0	33476	
6478	0	33260	
6479	0	33252	
6480	0	32444	
6481	0	32088	
6482	0	31438	
6483	0	30688	
6484	0	30424	
6485	0	31288	
6486	0	33124	
6487	0	35160	
6488	0	36264	
6489	0	36212	
6490	0	35324	
6491	0	34210	
6492	0	32596	
6493	0	30844	
6494	0	29092	
6495	0	27676	
6496	0	28048	
6497	0	30656	
6498	0	33096	
6499	0	33676	
6500	0	33392	
6501	0	33012	
6502	0	32208	
6503	0	29786	
6504	0	27228	
6505	0	26996	
6506	0	29020	
6507	0	31748	
6508	0	33924	
6509	0	34924	
6510	0	34216	
6511	0	32816	
6512	0	30660	
6513	0	29424	
6514	0	30888	
6515	0	32728	
6516	0	34682	
6517	0	37364	
6518	0	39152	
6519	0	38392	
6520	0	35432	
6521	0	32132	
6522	0	28712	
6523	0	25300	
6524	0	23072	
6525	0	22544	
6526	0	24004	
6527	0	26480	
6528	0	28464	
6529	0	29686	
6530	0	31024	
6531	0	32872	
6532	0	35864	
6533	0	39361	
6534	0	41800	
6535	0	42600	
6536	0	41336	
6537	0	38944	
6538	0	35770	
6539	0	32068	
6540	0	29448	
6541	0	27728	
6542	0	27576	
6543	0	28044	
6544	0	28572	
6545	0	29622	
6546	0	31412	
6547	0	33184	
6548	0	33700	
6549	0	32946	
6550	0	31144	
6551	0	28736	
6552	0	27410	
6553	0	26764	
6554	0	26684	
6555	0	28068	
6556	0	30592	
6557	0	33088	
6558	0	35168	
6559	0	37356	
6560	0	39288	
6561	0	40640	
6562	0	41480	
6563	0	41184	
6564	0	39700	
6565	0	37148	
6566	0	33524	
6567	0	29364	
6568	0	25724	
6569	0	23780	
6570	0	23397	
6571	0	25516	
6572	0	29800	
6573	0	34596	
6574	0	38464	
6575	0	40612	
6576	0	40984	
6577	0	40412	
6578	0	39284	
6579	0	37352	
6580	0	34072	
6581	0	31216	
6582	0	29760	
6583	0	28648	
6584	0	27296	
6585	0	26242	
6586	0	26432	
6587	0	26344	
6588	0	26612	
6589	0	29492	
6590	0	33866	
6591	0	37000	
6592	0	37616	
6593	0	36320	
6594	0	34244	
6595	0	32240	
6596	0	30132	
6597	0	27760	
6598	0	26604	
6599	0	27024	
6600	0	28460	
6601	0	30664	
6602	0	33732	
6603	0	36184	
6604	0	37752	
6605	0	38592	
6606	0	38196	
6607	0	35800	
6608	0	32164	
6609	0	27720	
6610	0	23976	
6611	0	21804	
6612	0	20796	
6613	0	21108	
6614	0	23304	
6615	0	26836	
6616	0	31412	
6617	0	36296	
6618	0	40700	
6619	0	44020	
6620	0	45188	
6621	0	44108	
6622	0	41472	
6623	0	38476	
6624	0	35476	
6625	0	32168	
6626	0	30252	
6627	0	29876	
6628	0	30732	
6629	0	31936	
6630	0	32372	
6631	0	32056	
6632	0	31380	
6633	0	29784	
6634	0	28276	
6635	0	27056	
6636	0	26264	
6637	0	25648	
6638	0	26084	
6639	0	29112	
6640	0	34096	
6641	0	38848	
6642	0	41376	
6643	0	41616	
6644	0	40464	
6645	0	38040	
6646	0	35488	
6647	0	34748	
6648	0	36484	
6649	0	38796	
6650	0	40332	
6651	0	40456	
6652	0	38848	
6653	0	35412	
6654	0	31664	
6655	0	28684	
6656	0	25828	
6657	0	24056	
6658	0	23612	
6659	0	24032	
6660	0	24584	
6661	0	25312	
6662	0	26264	
6663	0	28320	
6664	0	31752	
6665	0	35904	
6666	0	39120	
6667	0	41420	
6668	0	42160	
6669	0	40512	
6670	0	37048	
6671	0	32960	
6672	0	28976	
6673	0	26612	
6674	0	25148	
6675	0	25180	
6676	0	27388	
6677	0	30512	
6678	0	33140	
6679	0	34168	
6680	0	33838	
6681	0	33088	
6682	0	32472	
6683	0	32500	
6684	0	33552	
6685	0	36012	
6686	0	39152	
6687	0	41580	
6688	0	42252	
6689	0	41206	
6690	0	38384	
6691	0	34464	
6692	0	31276	
6693	0	28752	
6694	0	26768	
6695	0	25496	
6696	0	26464	
6697	0	28404	
6698	0	28304	
6699	0	26024	
6700	0	23522	
6701	0	21568	
6702	0	20800	
6703	0	22190	
6704	0	24576	
6705	0	28534	
6706	0	33376	
6707	0	38476	
6708	0	43232	
6709	0	46416	
6710	0	47840	
6711	0	47288	
6712	0	44852	
6713	0	41692	
6714	0	38648	
6715	0	36680	
6716	0	36480	
6717	0	37008	
6718	0	36704	
6719	0	34792	
6720	0	31956	
6721	0	28834	
6722	0	25808	
6723	0	23672	
6724	0	23538	
6725	0	25017	
6726	0	27880	
6727	0	30796	
6728	0	33752	
6729	0	35536	
6730	0	35912	
6731	0	36096	
6732	0	36548	
6733	0	37064	
6734	0	37944	
6735	0	38628	
6736	0	38400	
6737	0	37216	
6738	0	35536	
6739	0	32244	
6740	0	28984	
6741	0	26268	
6742	0	24376	
6743	0	23912	
6744	0	24732	
6745	0	26064	
6746	0	27120	
6747	0	28032	
6748	0	29604	
6749	0	31692	
6750	0	32924	
6751	0	33232	
6752	0	34472	
6753	0	36544	
6754	0	37852	
6755	0	38224	
6756	0	37960	
6757	0	36832	
6758	0	35096	
6759	0	32024	
6760	0	29060	
6761	0	27292	
6762	0	26320	
6763	0	25740	
6764	0	25652	
6765	0	27188	
6766	0	29964	
6767	0	32832	
6768	0	35240	
6769	0	38040	
6770	0	40484	
6771	0	41968	
6772	0	42536	
6773	0	42624	
6774	0	42084	
6775	0	40336	
6776	0	37176	
6777	0	34138	
6778	0	32040	
6779	0	31380	
6780	0	31512	
6781	0	32336	
6782	0	33800	
6783	0	35400	
6784	0	35444	
6785	0	34388	
6786	0	33224	
6787	0	32220	
6788	0	31324	
6789	0	30560	
6790	0	30652	
6791	0	31620	
6792	0	32316	
6793	0	32818	
6794	0	34152	
6795	0	35376	
6796	0	36016	
6797	0	35336	
6798	0	34412	
6799	0	33332	
6800	0	32332	
6801	0	32040	
6802	0	32560	
6803	0	32872	
6804	0	32952	
6805	0	33452	
6806	0	33112	
6807	0	31400	
6808	0	29792	
6809	0	27968	
6810	0	26592	
6811	0	25548	
6812	0	24354	
6813	0	24192	
6814	0	25424	
6815	0	27192	
6816	0	29088	
6817	0	31208	
6818	0	33488	
6819	0	34596	
6820	0	34172	
6821	0	32968	
6822	0	31596	
6823	0	30732	
6824	0	31256	
6825	0	32508	
6826	0	34076	
6827	0	35456	
6828	0	36180	
6829	0	36460	
6830	0	36640	
6831	0	36404	
6832	0	35932	
6833	0	35176	
6834	0	33816	
6835	0	32696	
6836	0	31616	
6837	0	31224	
6838	0	31764	
6839	0	32820	
6840	0	33952	
6841	0	35044	
6842	0	36416	
6843	0	36852	
6844	0	36280	
6845	0	35968	
6846	0	35972	
6847	0	36120	
6848	0	36828	
6849	0	37760	
6850	0	38384	
6851	0	38660	
6852	0	38620	
6853	0	38520	
6854	0	37948	
6855	0	37880	
6856	0	37660	
6857	0	36540	
6858	0	34656	
6859	0	32072	
6860	0	29696	
6861	0	28800	
6862	0	28220	
6863	0	27416	
6864	0	27496	
6865	0	28468	
6866	0	29130	
6867	0	29242	
6868	0	30372	
6869	0	31572	
6870	0	31876	
6871	0	31964	
6872	0	32620	
6873	0	33564	
6874	0	34324	
6875	0	35420	
6876	0	36840	
6877	0	38232	
6878	0	39636	
6879	0	40544	
6880	0	40956	
6881	0	41064	
6882	0	40488	
6883	0	37952	
6884	0	34504	
6885	0	31752	
6886	0	31248	
6887	0	30973	
6888	0	29840	
6889	0	28312	
6890	0	26833	
6891	0	26232	
6892	0	26252	
6893	0	27200	
6894	0	30356	
6895	0	34016	
6896	0	38112	
6897	0	40840	
6898	0	41860	
6899	0	41968	
6900	0	41180	
6901	0	39440	
6902	0	37380	
6903	0	35896	
6904	0	34644	
6905	0	33668	
6906	0	32844	
6907	0	32776	
6908	0	32329	
6909	0	31272	
6910	0	30456	
6911	0	29176	
6912	0	27684	
6913	0	25484	
6914	0	23444	
6915	0	22957	
6916	0	25260	
6917	0	28872	
6918	0	32124	
6919	0	34652	
6920	0	36188	
6921	0	36720	
6922	0	36508	
6923	0	36268	
6924	0	36532	
6925	0	36468	
6926	0	35848	
6927	0	35268	
6928	0	35160	
6929	0	35000	
6930	0	34288	
6931	0	33792	
6932	0	32836	
6933	0	30786	
6934	0	29252	
6935	0	29620	
6936	0	31548	
6937	0	32756	
6938	0	33120	
6939	0	32608	
6940	0	31776	
6941	0	31188	
6942	0	30436	
6943	0	30024	
6944	0	29868	
6945	0	30792	
6946	0	31736	
6947	0	32060	
6948	0	31920	
6949	0	31820	
6950	0	32032	
6951	0	32464	
6952	0	32972	
6953	0	33324	
6954	0	33540	
6955	0	33840	
6956	0	34092	
6957	0	34576	
6958	0	35528	
6959	0	36924	
6960	0	38784	
6961	0	40792	
6962	0	42592	
6963	0	44800	
6964	0	46528	
6965	0	46328	
6966	0	44496	
6967	0	41852	
6968	0	38048	
6969	0	33296	
6970	0	28656	
6971	0	26308	
6972	0	26036	
6973	0	26844	
6974	0	28640	
6975	0	31376	
6976	0	34240	
6977	0	36880	
6978	0	40584	
6979	0	44376	
6980	0	46848	
6981	0	47532	
6982	0	46952	
6983	0	45132	
6984	0	42240	
6985	0	38562	
6986	0	33900	
6987	0	29620	
6988	0	27120	
6989	0	26760	
6990	0	26856	
6991	0	26404	
6992	0	26580	
6993	0	27156	
6994	0	27960	
6995	0	28824	
6996	0	29884	
6997	0	32876	
6998	0	36960	
6999	0	39960	
7000	0	41848	
7001	0	42716	
7002	0	42624	
7003	0	42372	
7004	0	41488	
7005	0	39668	
7006	0	36936	
7007	0	33472	
7008	0	29764	
7009	0	26092	
7010	0	22864	
7011	0	21184	
7012	0	20680	
7013	0	21209	
7014	0	22784	
7015	0	24584	
7016	0	25808	
7017	0	26408	
7018	0	26696	
7019	0	27848	
7020	0	29576	
7021	0	31136	
7022	0	32760	
7023	0	34632	
7024	0	37360	
7025	0	39612	
7026	0	41112	
7027	0	41708	
7028	0	41700	
7029	0	41400	
7030	0	40352	
7031	0	38352	
7032	0	35628	
7033	0	32436	
7034	0	31096	
7035	0	31296	
7036	0	31872	
7037	0	31792	
7038	0	30568	
7039	0	28768	
7040	0	26488	
7041	0	24308	
7042	0	22624	
7043	0	21316	
7044	0	21192	
7045	0	21980	
7046	0	23496	
7047	0	25496	
7048	0	26716	
7049	0	26988	
7050	0	27720	
7051	0	29488	
7052	0	31836	
7053	0	35588	
7054	0	40292	
7055	0	44848	
7056	0	47800	
7057	0	48608	
7058	0	47540	
7059	0	44396	
7060	0	39576	
7061	0	34202	
7062	0	28968	
7063	0	25168	
7064	0	23160	
7065	0	22938	
7066	0	24800	
7067	0	26768	
7068	0	28760	
7069	0	31036	
7070	0	34048	
7071	0	36896	
7072	0	38364	
7073	0	38756	
7074	0	39276	
7075	0	39584	
7076	0	38068	
7077	0	35304	
7078	0	32872	
7079	0	31288	
7080	0	30018	
7081	0	28592	
7082	0	27604	
7083	0	26476	
7084	0	25768	
7085	0	26512	
7086	0	27976	
7087	0	29880	
7088	0	31436	
7089	0	33168	
7090	0	34816	
7091	0	35936	
7092	0	36052	
7093	0	36840	
7094	0	37220	
7095	0	35960	
7096	0	33868	
7097	0	32012	
7098	0	32496	
7099	0	33728	
7100	0	35296	
7101	0	36648	
7102	0	36932	
7103	0	37260	
7104	0	36932	
7105	0	36180	
7106	0	35680	
7107	0	35760	
7108	0	36392	
7109	0	36672	
7110	0	35744	
7111	0	33332	
7112	0	30408	
7113	0	28420	
7114	0	26904	
7115	0	25912	
7116	0	26290	
7117	0	27742	
7118	0	29800	
7119	0	32020	
7120	0	32848	
7121	0	32392	
7122	0	31104	
7123	0	29530	
7124	0	29010	
7125	0	29836	
7126	0	32036	
7127	0	34362	
7128	0	35696	
7129	0	36100	
7130	0	35744	
7131	0	34260	
7132	0	32906	
7133	0	31488	
7134	0	30632	
7135	0	31164	
7136	0	32196	
7137	0	33252	
7138	0	34544	
7139	0	35880	
7140	0	36688	
7141	0	37122	
7142	0	36540	
7143	0	35788	
7144	0	35104	
7145	0	33816	
7146	0	32100	
7147	0	30412	
7148	0	29496	
7149	0	29692	
7150	0	30592	
7151	0	31972	
7152	0	34412	
7153	0	36976	
7154	0	38088	
7155	0	37612	
7156	0	37524	
7157	0	36412	
7158	0	33844	
7159	0	31744	
7160	0	30778	
7161	0	30340	
7162	0	30040	
7163	0	28980	
7164	0	27896	
7165	0	27232	
7166	0	27276	
7167	0	28824	
7168	0	31506	
7169	0	33044	
7170	0	33268	
7171	0	33744	
7172	0	34256	
7173	0	34864	
7174	0	35704	
7175	0	36904	
7176	0	39128	
7177	0	41000	
7178	0	40960	
7179	0	39736	
7180	0	37440	
7181	0	33728	
7182	0	29248	
7183	0	25500	
7184	0	23976	
7185	0	23952	
7186	0	24402	
7187	0	25521	
7188	0	27440	
7189	0	29820	
7190	0	32680	
7191	0	35536	
7192	0	38148	
7193	0	40440	
7194	0	41872	
7195	0	41616	
7196	0	39904	
7197	0	37656	
7198	0	34904	
7199	0	31648	
7200	0	28656	
7201	0	26794	
7202	0	27184	
7203	0	29684	
7204	0	33036	
7205	0	35248	
7206	0	35448	
7207	0	35024	
7208	0	34680	
7209	0	34156	
7210	0	34640	
7211	0	36804	
7212	0	39148	
7213	0	41432	
7214	0	43748	
7215	0	45420	
7216	0	45824	
7217	0	44704	
7218	0	43272	
7219	0	42056	
7220	0	40896	
7221	0	40032	
7222	0	37814	
7223	0	33724	
7224	0	29692	
7225	0	27176	
7226	0	26472	
7227	0	28596	
7228	0	32480	
7229	0	36068	
7230	0	38000	
7231	0	36992	
7232	0	33792	
7233	0	30104	
7234	0	25944	
7235	0	23412	
7236	0	23136	
7237	0	24380	
7238	0	26816	
7239	0	31152	
7240	0	35808	
7241	0	38032	
7242	0	38684	
7243	0	38144	
7244	0	36672	
7245	0	35204	
7246	0	33572	
7247	0	32212	
7248	0	32300	
7249	0	32996	
7250	0	33768	
7251	0	34840	
7252	0	35060	
7253	0	34584	
7254	0	33936	
7255	0	32628	
7256	0	30104	
7257	0	27708	
7258	0	25532	
7259	0	24400	
7260	0	24936	
7261	0	26092	
7262	0	27208	
7263	0	28684	
7264	0	30084	
7265	0	31596	
7266	0	33296	
7267	0	35128	
7268	0	36296	
7269	0	36496	
7270	0	36344	
7271	0	36488	
7272	0	35540	
7273	0	33360	
7274	0	30696	
7275	0	29212	
7276	0	28984	
7277	0	29564	
7278	0	30260	
7279	0	31630	
7280	0	33664	
7281	0	34980	
7282	0	35024	
7283	0	34960	
7284	0	34744	
7285	0	35148	
7286	0	36096	
7287	0	35912	
7288	0	35500	
7289	0	35876	
7290	0	36328	
7291	0	35680	
7292	0	33596	
7293	0	31160	
7294	0	29620	
7295	0	29304	
7296	0	29676	
7297	0	29658	
7298	0	28744	
7299	0	27760	
7300	0	27504	
7301	0	26696	
7302	0	26244	
7303	0	26688	
7304	0	27840	
7305	0	28904	
7306	0	29244	
7307	0	28460	
7308	0	27276	
7309	0	26282	
7310	0	26084	
7311	0	26100	
7312	0	26436	
7313	0	28416	
7314	0	31242	
7315	0	33312	
7316	0	33696	
7317	0	33096	
7318	0	32456	
7319	0	31468	
7320	0	29832	
7321	0	28332	
7322	0	27994	
7323	0	28296	
7324	0	29220	
7325	0	30588	
7326	0	31972	
7327	0	33468	
7328	0	34428	
7329	0	34970	
7330	0	36176	
7331	0	36996	
7332	0	37788	
7333	0	38200	
7334	0	37984	
7335	0	37100	
7336	0	35596	
7337	0	33788	
7338	0	32308	
7339	0	30692	
7340	0	28964	
7341	0	27128	
7342	0	25804	
7343	0	26082	
7344	0	26442	
7345	0	26592	
7346	0	27744	
7347	0	29136	
7348	0	30144	
7349	0	31004	
7350	0	31532	
7351	0	32232	
7352	0	33112	
7353	0	32696	
7354	0	32272	
7355	0	32768	
7356	0	34236	
7357	0	35500	
7358	0	36224	
7359	0	36936	
7360	0	37044	
7361	0	35552	
7362	0	32196	
7363	0	28884	
7364	0	26196	
7365	0	24692	
7366	0	25668	
7367	0	28580	
7368	0	32096	
7369	0	35028	
7370	0	36160	
7371	0	35584	
7372	0	33768	
7373	0	31864	
7374	0	30144	
7375	0	29532	
7376	0	30152	
7377	0	30642	
7378	0	30748	
7379	0	30560	
7380	0	29944	
7381	0	30104	
7382	0	31980	
7383	0	36200	
7384	0	41312	
7385	0	44672	
7386	0	45688	
7387	0	45114	
7388	0	42868	
7389	0	38464	
7390	0	33026	
7391	0	29432	
7392	0	27594	
7393	0	27136	
7394	0	27732	
7395	0	29128	
7396	0	30372	
7397	0	31972	
7398	0	33112	
7399	0	34064	
7400	0	33968	
7401	0	32628	
7402	0	30428	
7403	0	28936	
7404	0	28276	
7405	0	27648	
7406	0	27208	
7407	0	27144	
7408	0	27310	
7409	0	27570	
7410	0	28764	
7411	0	30496	
7412	0	31860	
7413	0	32648	
7414	0	33400	
7415	0	34704	
7416	0	36400	
7417	0	37216	
7418	0	37020	
7419	0	36740	
7420	0	36700	
7421	0	36264	
7422	0	34858	
7423	0	33704	
7424	0	33088	
7425	0	32396	
7426	0	32008	
7427	0	31760	
7428	0	32560	
7429	0	33948	
7430	0	34320	
7431	0	33588	
7432	0	32896	
7433	0	31904	
7434	0	31348	
7435	0	30420	
7436	0	28964	
7437	0	28141	
7438	0	27632	
7439	0	27564	
7440	0	28144	
7441	0	29826	
7442	0	33088	
7443	0	36580	
7444	0	38516	
7445	0	38020	
7446	0	36208	
7447	0	34368	
7448	0	32968	
7449	0	32684	
7450	0	32810	
7451	0	33184	
7452	0	33824	
7453	0	34904	
7454	0	35400	
7455	0	35156	
7456	0	35017	
7457	0	35528	
7458	0	35216	
7459	0	32834	
7460	0	29576	
7461	0	26776	
7462	0	25036	
7463	0	23120	
7464	0	22298	
7465	0	23968	
7466	0	26376	
7467	0	28332	
7468	0	28832	
7469	0	28920	
7470	0	29472	
7471	0	30296	
7472	0	31696	
7473	0	34522	
7474	0	38096	
7475	0	41464	
7476	0	43876	
7477	0	44680	
7478	0	43864	
7479	0	41136	
7480	0	37512	
7481	0	33544	
7482	0	30560	
7483	0	28848	
7484	0	28044	
7485	0	27610	
7486	0	26864	
7487	0	25516	
7488	0	24292	
7489	0	23456	
7490	0	23088	
7491	0	24284	
7492	0	26204	
7493	0	29128	
7494	0	33196	
7495	0	37452	
7496	0	40752	
7497	0	42496	
7498	0	41988	
7499	0	39912	
7500	0	37336	
7501	0	34702	
7502	0	32624	
7503	0	32004	
7504	0	32232	
7505	0	32816	
7506	0	32976	
7507	0	33248	
7508	0	33128	
7509	0	31424	
7510	0	29608	
7511	0	28952	
7512	0	29544	
7513	0	29674	
7514	0	30676	
7515	0	34728	
7516	0	39736	
7517	0	43776	
7518	0	44476	
7519	0	42676	
7520	0	38872	
7521	0	33888	
7522	0	29184	
7523	0	26504	
7524	0	25616	
7525	0	25092	
7526	0	24432	
7527	0	23690	
7528	0	23572	
7529	0	23348	
7530	0	23428	
7531	0	25324	
7532	0	29360	
7533	0	33160	
7534	0	34424	
7535	0	34688	
7536	0	35568	
7537	0	36156	
7538	0	36744	
7539	0	38412	
7540	0	41184	
7541	0	43720	
7542	0	45704	
7543	0	48112	
7544	0	49872	
7545	0	50532	
7546	0	49296	
7547	0	45832	
7548	0	40144	
7549	0	34104	
7550	0	28178	
7551	0	23308	
7552	0	19536	
7553	0	17512	
7554	0	16900	
7555	0	17410	
7556	0	19354	
7557	0	22872	
7558	0	27408	
7559	0	31152	
7560	0	33828	
7561	0	36032	
7562	0	37124	
7563	0	37436	
7564	0	38112	
7565	0	39084	
7566	0	38844	
7567	0	36920	
7568	0	34184	
7569	0	31272	
7570	0	28488	
7571	0	26476	
7572	0	25556	
7573	0	25692	
7574	0	25824	
7575	0	25516	
7576	0	25024	
7577	0	24940	
7578	0	25616	
7579	0	27682	
7580	0	30564	
7581	0	33864	
7582	0	36716	
7583	0	38080	
7584	0	37664	
7585	0	36924	
7586	0	35788	
7587	0	34760	
7588	0	34256	
7589	0	34056	
7590	0	33624	
7591	0	32784	
7592	0	31792	
7593	0	31048	
7594	0	30676	
7595	0	31192	
7596	0	31626	
7597	0	31156	
7598	0	30368	
7599	0	28120	
7600	0	25864	
7601	0	24488	
7602	0	26528	
7603	0	32888	
7604	0	38568	
7605	0	40496	
7606	0	39876	
7607	0	38568	
7608	0	37184	
7609	0	35952	
7610	0	34452	
7611	0	32604	
7612	0	31080	
7613	0	29448	
7614	0	27368	
7615	0	25348	
7616	0	25224	
7617	0	27092	
7618	0	29216	
7619	0	32176	
7620	0	36380	
7621	0	40296	
7622	0	42700	
7623	0	42112	
7624	0	37800	
7625	0	32306	
7626	0	27964	
7627	0	25656	
7628	0	26188	
7629	0	28572	
7630	0	31008	
7631	0	32528	
7632	0	33856	
7633	0	34348	
7634	0	33636	
7635	0	32648	
7636	0	34200	
7637	0	36828	
7638	0	38952	
7639	0	40144	
7640	0	39936	
7641	0	39164	
7642	0	37904	
7643	0	36052	
7644	0	34608	
7645	0	33848	
7646	0	33834	
7647	0	33592	
7648	0	32808	
7649	0	31676	
7650	0	29732	
7651	0	27040	
7652	0	24608	
7653	0	23288	
7654	0	22908	
7655	0	22240	
7656	0	22284	
7657	0	24704	
7658	0	28040	
7659	0	31084	
7660	0	33624	
7661	0	35708	
7662	0	37140	
7663	0	36328	
7664	0	33272	
7665	0	29768	
7666	0	27412	
7667	0	26936	
7668	0	28612	
7669	0	32116	
7670	0	36544	
7671	0	39728	
7672	0	41324	
7673	0	41384	
7674	0	39252	
7675	0	37140	
7676	0	34616	
7677	0	30832	
7678	0	28224	
7679	0	26956	
7680	0	27712	
7681	0	29292	
7682	0	31504	
7683	0	33856	
7684	0	34972	
7685	0	35624	
7686	0	36068	
7687	0	35800	
7688	0	35252	
7689	0	34464	
7690	0	32884	
7691	0	30576	
7692	0	28112	
7693	0	26356	
7694	0	25872	
7695	0	26316	
7696	0	27380	
7697	0	29832	
7698	0	34036	
7699	0	38040	
7700	0	40448	
7701	0	40972	
7702	0	41116	
7703	0	39880	
7704	0	37852	
7705	0	35684	
7706	0	33404	
7707	0	30332	
7708	0	26944	
7709	0	24632	
7710	0	24020	
7711	0	24884	
7712	0	26956	
7713	0	30576	
7714	0	34736	
7715	0	37650	
7716	0	38380	
7717	0	39168	
7718	0	41320	
7719	0	43128	
7720	0	43144	
7721	0	41648	
7722	0	39592	
7723	0	37664	
7724	0	35192	
7725	0	33616	
7726	0	34128	
7727	0	35204	
7728	0	35208	
7729	0	34306	
7730	0	33472	
7731	0	32364	
7732	0	30992	
7733	0	29882	
7734	0	29152	
7735	0	28932	
7736	0	29328	
7737	0	30004	
7738	0	31228	
7739	0	33148	
7740	0	33896	
7741	0	33384	
7742	0	33096	
7743	0	32676	
7744	0	31768	
7745	0	30576	
7746	0	30048	
7747	0	30520	
7748	0	31604	
7749	0	34212	
7750	0	37672	
7751	0	40944	
7752	0	41744	
7753	0	40440	
7754	0	39216	
7755	0	38128	
7756	0	36476	
7757	0	33464	
7758	0	28624	
7759	0	26064	
7760	0	26416	
7761	0	27820	
7762	0	28220	
7763	0	28778	
7764	0	31328	
7765	0	33688	
7766	0	34152	
7767	0	35632	
7768	0	36560	
7769	0	35508	
7770	0	33464	
7771	0	31064	
7772	0	29144	
7773	0	27874	
7774	0	27800	
7775	0	29136	
7776	0	30952	
7777	0	33584	
7778	0	36592	
7779	0	37568	
7780	0	37556	
7781	0	36880	
7782	0	36040	
7783	0	35176	
7784	0	34688	
7785	0	34600	
7786	0	34992	
7787	0	34760	
7788	0	33348	
7789	0	31424	
7790	0	31064	
7791	0	32728	
7792	0	34448	
7793	0	35356	
7794	0	35364	
7795	0	34404	
7796	0	32408	
7797	0	29580	
7798	0	27312	
7799	0	25784	
7800	0	25116	
7801	0	24928	
7802	0	26172	
7803	0	28500	
7804	0	30608	
7805	0	32828	
7806	0	35050	
7807	0	36124	
7808	0	35828	
7809	0	34976	
7810	0	34192	
7811	0	33152	
7812	0	32912	
7813	0	35216	
7814	0	37548	
7815	0	39178	
7816	0	40784	
7817	0	42948	
7818	0	43356	
7819	0	40682	
7820	0	36972	
7821	0	33404	
7822	0	30340	
7823	0	27920	
7824	0	26088	
7825	0	25676	
7826	0	26440	
7827	0	27100	
7828	0	26776	
7829	0	25936	
7830	0	25220	
7831	0	25532	
7832	0	27080	
7833	0	29852	
7834	0	33812	
7835	0	37976	
7836	0	41420	
7837	0	43596	
7838	0	43328	
7839	0	41080	
7840	0	39628	
7841	0	38900	
7842	0	37732	
7843	0	37520	
7844	0	38448	
7845	0	39008	
7846	0	37892	
7847	0	35612	
7848	0	32952	
7849	0	29796	
7850	0	26860	
7851	0	26042	
7852	0	27082	
7853	0	27992	
7854	0	29592	
7855	0	32600	
7856	0	36076	
7857	0	39108	
7858	0	41008	
7859	0	42116	
7860	0	43352	
7861	0	44112	
7862	0	43464	
7863	0	42200	
7864	0	40936	
7865	0	39564	
7866	0	39020	
7867	0	38976	
7868	0	38312	
7869	0	37472	
7870	0	36084	
7871	0	34068	
7872	0	31696	
7873	0	29420	
7874	0	26660	
7875	0	23816	
7876	0	22264	
7877	0	22492	
7878	0	23548	
7879	0	27020	
7880	0	33608	
7881	0	40288	
7882	0	44552	
7883	0	45932	
7884	0	45848	
7885	0	44072	
7886	0	40140	
7887	0	36632	
7888	0	34288	
7889	0	31552	
7890	0	28016	
7891	0	24586	
7892	0	22096	
7893	0	21116	
7894	0	22200	
7895	0	23716	
7896	0	24908	
7897	0	26580	
7898	0	28736	
7899	0	32048	
7900	0	35752	
7901	0	38700	
7902	0	40896	
7903	0	41724	
7904	0	42112	
7905	0	42344	
7906	0	42481	
7907	0	42064	
7908	0	40384	
7909	0	37496	
7910	0	34320	
7911	0	32208	
7912	0	30384	
7913	0	28024	
7914	0	26264	
7915	0	25280	
7916	0	24376	
7917	0	23492	
7918	0	22492	
7919	0	21137	
7920	0	20400	
7921	0	20802	
7922	0	22764	
7923	0	26076	
7924	0	29888	
7925	0	34344	
7926	0	38160	
7927	0	40360	
7928	0	41216	
7929	0	40224	
7930	0	37908	
7931	0	35440	
7932	0	32952	
7933	0	30640	
7934	0	30152	
7935	0	31912	
7936	0	34368	
7937	0	35436	
7938	0	34956	
7939	0	33928	
7940	0	33224	
7941	0	33486	
7942	0	35328	
7943	0	37136	
7944	0	37860	
7945	0	37604	
7946	0	36408	
7947	0	33760	
7948	0	31596	
7949	0	30708	
7950	0	29596	
7951	0	28968	
7952	0	28564	
7953	0	28876	
7954	0	30344	
7955	0	32108	
7956	0	35040	
7957	0	37296	
7958	0	37176	
7959	0	34748	
7960	0	31164	
7961	0	27272	
7962	0	24104	
7963	0	22596	
7964	0	23088	
7965	0	24540	
7966	0	26713	
7967	0	28920	
7968	0	29944	
7969	0	30016	
7970	0	28884	
7971	0	27576	
7972	0	26866	
7973	0	27576	
7974	0	29844	
7975	0	33100	
7976	0	35916	
7977	0	38384	
7978	0	41060	
7979	0	43472	
7980	0	45204	
7981	0	44840	
7982	0	42424	
7983	0	38384	
7984	0	34602	
7985	0	32420	
7986	0	31640	
7987	0	32016	
7988	0	33388	
7989	0	35028	
7990	0	36084	
7991	0	35444	
7992	0	33300	
7993	0	30832	
7994	0	28456	
7995	0	26900	
7996	0	26616	
7997	0	28556	
7998	0	31032	
7999	0	32808	
8000	0	35096	
8001	0	37224	
8002	0	38740	
8003	0	39552	
8004	0	39952	
8005	0	38792	
8006	0	35876	
8007	0	31868	
8008	0	27824	
8009	0	24708	
8010	0	23172	
8011	0	23300	
8012	0	24682	
8013	0	25856	
8014	0	26860	
8015	0	27920	
8016	0	29612	
8017	0	31168	
8018	0	32108	
8019	0	32352	
8020	0	32672	
8021	0	34340	
8022	0	35796	
8023	0	35864	
8024	0	36144	
8025	0	37636	
8026	0	39008	
8027	0	39416	
8028	0	39696	
8029	0	40696	
8030	0	41700	
8031	0	42196	
8032	0	41736	
8033	0	39272	
8034	0	36576	
8035	0	34380	
8036	0	32660	
8037	0	31072	
8038	0	29912	
8039	0	30904	
8040	0	33048	
8041	0	33992	
8042	0	33602	
8043	0	32704	
8044	0	31528	
8045	0	30184	
8046	0	27728	
8047	0	25560	
8048	0	25852	
8049	0	27968	
8050	0	29564	
8051	0	30436	
8052	0	30656	
8053	0	30584	
8054	0	30952	
8055	0	31984	
8056	0	34904	
8057	0	38816	
8058	0	41560	
8059	0	42888	
8060	0	42872	
8061	0	41784	
8062	0	39178	
8063	0	36216	
8064	0	33016	
8065	0	29872	
8066	0	28504	
8067	0	28876	
8068	0	30560	
8069	0	31540	
8070	0	31768	
8071	0	31504	
8072	0	31428	
8073	0	32884	
8074	0	35664	
8075	0	38876	
8076	0	41512	
8077	0	43124	
8078	0	44034	
8079	0	42432	
8080	0	37808	
8081	0	31940	
8082	0	25880	
8083	0	21432	
8084	0	19610	
8085	0	19276	
8086	0	20592	
8087	0	24117	
8088	0	28460	
8089	0	31612	
8090	0	33612	
8091	0	34840	
8092	0	35440	
8093	0	36088	
8094	0	36864	
8095	0	37160	
8096	0	37028	
8097	0	37632	
8098	0	38396	
8099	0	39680	
8100	0	40408	
8101	0	40256	
8102	0	39568	
8103	0	38264	
8104	0	37248	
8105	0	37144	
8106	0	37868	
8107	0	39660	
8108	0	41408	
8109	0	42498	
8110	0	42168	
8111	0	39832	
8112	0	36712	
8113	0	33704	
8114	0	30656	
8115	0	27928	
8116	0	25968	
8117	0	25068	
8118	0	25680	
8119	0	28028	
8120	0	30888	
8121	0	33412	
8122	0	36360	
8123	0	38904	
8124	0	40604	
8125	0	41384	
8126	0	41508	
8127	0	40696	
8128	0	38912	
8129	0	37144	
8130	0	35748	
8131	0	34560	
8132	0	33440	
8133	0	31976	
8134	0	30916	
8135	0	31456	
8136	0	33804	
8137	0	36780	
8138	0	38392	
8139	0	38800	
8140	0	38272	
8141	0	36324	
8142	0	33616	
8143	0	30892	
8144	0	28880	
8145	0	27976	
8146	0	27520	
8147	0	27200	
8148	0	25872	
8149	0	24666	
8150	0	24114	
8151	0	24404	
8152	0	25342	
8153	0	27188	
8154	0	29198	
8155	0	30520	
8156	0	31508	
8157	0	32264	
8158	0	32728	
8159	0	32888	
8160	0	33200	
8161	0	33528	
8162	0	33888	
8163	0	33888	
8164	0	34256	
8165	0	35032	
8166	0	35480	
8167	0	35120	
8168	0	33192	
8169	0	29684	
8170	0	26228	
8171	0	24176	
8172	0	24448	
8173	0	26440	
8174	0	29528	
8175	0	33124	
8176	0	36088	
8177	0	37472	
8178	0	37176	
8179	0	35932	
8180	0	34580	
8181	0	33572	
8182	0	32880	
8183	0	32036	
8184	0	30808	
8185	0	29904	
8186	0	29952	
8187	0	31470	
8188	0	33876	
8189	0	35316	
8190	0	35592	
8191	0	35692	
8192	0	35916	
8193	0	34732	
8194	0	31588	
8195	0	28344	
8196	0	25680	
8197	0	24772	
8198	0	25940	
8199	0	26868	
8200	0	27384	
8201	0	28373	
8202	0	29600	
8203	0	30648	
8204	0	31700	
8205	0	32948	
8206	0	34448	
8207	0	36080	
8208	0	36716	
8209	0	35888	
8210	0	33984	
8211	0	31688	
8212	0	29440	
8213	0	27100	
8214	0	25824	
8215	0	27388	
8216	0	30528	
8217	0	34004	
8218	0	35984	
8219	0	35364	
8220	0	32828	
8221	0	29352	
8222	0	26508	
8223	0	24292	
8224	0	23468	
8225	0	24476	
8226	0	26484	
8227	0	28824	
8228	0	30232	
8229	0	31428	
8230	0	33384	
8231	0	36716	
8232	0	39944	
8233	0	42232	
8234	0	43120	
8235	0	42264	
8236	0	39168	
8237	0	34472	
8238	0	30972	
8239	0	29924	
8240	0	29536	
8241	0	28812	
8242	0	27820	
8243	0	27764	
8244	0	28772	
8245	0	29272	
8246	0	29060	
8247	0	28588	
8248	0	27944	
8249	0	26702	
8250	0	25288	
8251	0	24840	
8252	0	25820	
8253	0	27728	
8254	0	29388	
8255	0	30484	
8256	0	31376	
8257	0	31852	
8258	0	31880	
8259	0	31572	
8260	0	32168	
8261	0	34308	
8262	0	36624	
8263	0	36568	
8264	0	35760	
8265	0	35244	
8266	0	33072	
8267	0	29464	
8268	0	26088	
8269	0	23520	
8270	0	22480	
8271	0	23512	
8272	0	26508	
8273	0	31912	
8274	0	38032	
8275	0	43424	
8276	0	46344	
8277	0	46696	
8278	0	44816	
8279	0	40912	
8280	0	36744	
8281	0	33784	
8282	0	31568	
8283	0	30292	
8284	0	29512	
8285	0	29308	
8286	0	28816	
8287	0	27682	
8288	0	26796	
8289	0	26596	
8290	0	25980	
8291	0	25392	
8292	0	25736	
8293	0	27212	
8294	0	29588	
8295	0	32112	
8296	0	33768	
8297	0	35912	
8298	0	37312	
8299	0	37060	
8300	0	35384	
8301	0	33764	
8302	0	33192	
8303	0	34112	
8304	0	36416	
8305	0	38240	
8306	0	38324	
8307	0	36800	
8308	0	34468	
8309	0	32106	
8310	0	29512	
8311	0	26800	
8312	0	25000	
8313	0	24532	
8314	0	25052	
8315	0	26052	
8316	0	28704	
8317	0	33480	
8318	0	38004	
8319	0	41480	
8320	0	42776	
8321	0	40908	
8322	0	37556	
8323	0	34344	
8324	0	30900	
8325	0	28536	
8326	0	28028	
8327	0	28724	
8328	0	30568	
8329	0	32344	
8330	0	33448	
8331	0	34468	
8332	0	35508	
8333	0	35530	
8334	0	33772	
8335	0	31480	
8336	0	29834	
8337	0	29460	
8338	0	29820	
8339	0	30680	
8340	0	32338	
8341	0	33868	
8342	0	35816	
8343	0	37970	
8344	0	39828	
8345	0	40868	
8346	0	41580	
8347	0	41868	
8348	0	40568	
8349	0	37272	
8350	0	33388	
8351	0	30224	
8352	0	27188	
8353	0	24240	
8354	0	22174	
8355	0	21304	
8356	0	21448	
8357	0	22266	
8358	0	24392	
8359	0	27504	
8360	0	30460	
8361	0	33292	
8362	0	35524	
8363	0	35328	
8364	0	34720	
8365	0	34140	
8366	0	34388	
8367	0	34284	
8368	0	33216	
8369	0	31920	
8370	0	30664	
8371	0	29560	
8372	0	29704	
8373	0	30504	
8374	0	30844	
8375	0	29708	
8376	0	28240	
8377	0	27712	
8378	0	27920	
8379	0	28556	
8380	0	30120	
8381	0	32916	
8382	0	35300	
8383	0	37184	
8384	0	38240	
8385	0	38064	
8386	0	38088	
8387	0	37536	
8388	0	36300	
8389	0	33648	
8390	0	30056	
8391	0	27128	
8392	0	25368	
8393	0	25868	
8394	0	27668	
8395	0	29424	
8396	0	31296	
8397	0	32956	
8398	0	34396	
8399	0	34788	
8400	0	35196	
8401	0	36216	
8402	0	37504	
8403	0	39244	
8404	0	40088	
8405	0	40384	
8406	0	39488	
8407	0	37688	
8408	0	35460	
8409	0	32852	
8410	0	30768	
8411	0	29056	
8412	0	27692	
8413	0	28696	
8414	0	31440	
8415	0	34520	
8416	0	37200	
8417	0	38696	
8418	0	37816	
8419	0	34712	
8420	0	30778	
8421	0	27508	
8422	0	24936	
8423	0	23644	
8424	0	24860	
8425	0	27968	
8426	0	31160	
8427	0	33296	
8428	0	33480	
8429	0	31660	
8430	0	28384	
8431	0	25580	
8432	0	23680	
8433	0	23100	
8434	0	25280	
8435	0	29168	
8436	0	33132	
8437	0	34624	
8438	0	34564	
8439	0	33456	
8440	0	32712	
8441	0	32400	
8442	0	32148	
8443	0	31984	
8444	0	32304	
8445	0	33492	
8446	0	35444	
8447	0	35988	
8448	0	37048	
8449	0	38432	
8450	0	38145	
8451	0	37228	
8452	0	36360	
8453	0	35340	
8454	0	34016	
8455	0	33060	
8456	0	33016	
8457	0	33992	
8458	0	34800	
8459	0	34596	
8460	0	34576	
8461	0	34428	
8462	0	33224	
8463	0	31322	
8464	0	29976	
8465	0	30004	
8466	0	30148	
8467	0	29580	
8468	0	30188	
8469	0	32648	
8470	0	35672	
8471	0	37908	
8472	0	38858	
8473	0	39500	
8474	0	39204	
8475	0	36888	
8476	0	34400	
8477	0	32124	
8478	0	29352	
8479	0	27000	
8480	0	25040	
8481	0	23380	
8482	0	22208	
8483	0	21986	
8484	0	22816	
8485	0	24344	
8486	0	25788	
8487	0	28080	
8488	0	31556	
8489	0	35968	
8490	0	40632	
8491	0	43616	
8492	0	43744	
8493	0	41708	
8494	0	39456	
8495	0	37464	
8496	0	35704	
8497	0	33924	
8498	0	31772	
8499	0	30266	
8500	0	29688	
8501	0	29880	
8502	0	31348	
8503	0	32628	
8504	0	33624	
8505	0	33540	
8506	0	31988	
8507	0	29600	
8508	0	27620	
8509	0	26472	
8510	0	28118	
8511	0	33024	
8512	0	39032	
8513	0	43136	
8514	0	44664	
8515	0	43960	
8516	0	41736	
8517	0	39244	
8518	0	36202	
8519	0	33624	
8520	0	31480	
8521	0	29292	
8522	0	26992	
8523	0	25170	
8524	0	23704	
8525	0	23512	
8526	0	24162	
8527	0	26320	
8528	0	29434	
8529	0	32540	
8530	0	35480	
8531	0	38428	
8532	0	40108	
8533	0	39908	
8534	0	38212	
8535	0	36272	
8536	0	34776	
8537	0	33640	
8538	0	33088	
8539	0	32620	
8540	0	31612	
8541	0	29520	
8542	0	27080	
8543	0	23964	
8544	0	21472	
8545	0	22312	
8546	0	26328	
8547	0	31298	
8548	0	36560	
8549	0	40512	
8550	0	42640	
8551	0	44028	
8552	0	44904	
8553	0	44208	
8554	0	41788	
8555	0	38656	
8556	0	34192	
8557	0	29530	
8558	0	26644	
8559	0	25132	
8560	0	25448	
8561	0	27648	
8562	0	30192	
8563	0	31496	
8564	0	31050	
8565	0	29940	
8566	0	29182	
8567	0	29104	
8568	0	29552	
8569	0	30544	
8570	0	32772	
8571	0	35560	
8572	0	38088	
8573	0	40204	
8574	0	40844	
8575	0	40372	
8576	0	39472	
8577	0	38460	
8578	0	36736	
8579	0	33364	
8580	0	30348	
8581	0	29744	
8582	0	30448	
8583	0	30956	
8584	0	31684	
8585	0	32464	
8586	0	31972	
8587	0	30292	
8588	0	28312	
8589	0	26756	
8590	0	25564	
8591	0	24980	
8592	0	25982	
8593	0	29692	
8594	0	34608	
8595	0	38788	
