# OpenSignals Text File Format. Version 1
# {"00:07:80:0F:31:47": {"position": 0, "device": "biosignalsplux", "device name": "00:07:80:0F:31:47", "device connection": "BTH00:07:80:0F:31:47", "sampling rate": 1000, "resolution": [16], "firmware version": 775, "comments": "", "keywords": "", "mode": 0, "sync interval": 2, "date": "2023-2-6", "time": "10:30:45.861", "channels": [1], "sensor": ["ECG"], "label": ["CH1"], "column": ["nSeq", "DI", "CH1"], "special": [{"SpO2": [80, 40, 5, 4, 3, 3]}, {"SpO2": [80, 40, 5, 4, 3, 3]}, {"SpO2": [80, 40, 5, 4, 3, 3]}, {"SpO2": [80, 40, 5, 4, 3, 3]}, {"SpO2": [80, 40, 5, 4, 3, 3]}, {"SpO2": [80, 40, 5, 4, 3, 3]}, {"SpO2": [80, 40, 5, 4, 3, 3]}, {"SpO2": [80, 40, 5, 4, 3, 3]}], "digital IO": [0, 1], "sleeve color": [""]}}
# EndOfHeader
0	0	33120	
1	0	33316	
2	0	33452	
3	0	33592	
4	0	33540	
5	0	33344	
6	0	33056	
7	0	32840	
8	0	32632	
9	0	32384	
10	0	32088	
11	0	31852	
12	0	31632	
13	0	31596	
14	0	31512	
15	0	31384	
16	0	31308	
17	0	31148	
18	0	31000	
19	0	31004	
20	0	31228	
21	0	31704	
22	0	32352	
23	0	33072	
24	0	33716	
25	0	34360	
26	0	35084	
27	0	35896	
28	0	36876	
29	0	38052	
30	0	39304	
31	0	40756	
32	0	42360	
33	0	44128	
34	0	46172	
35	0	48576	
36	0	51292	
37	0	54084	
38	0	56800	
39	0	59416	
40	0	61794	
41	0	63468	
42	0	64312	
43	0	64720	
44	0	64876	
45	0	64916	
46	0	64864	
47	0	64796	
48	0	64704	
49	0	64600	
50	0	64464	
51	0	64372	
52	0	62272	
53	0	57744	
54	0	53868	
55	0	50576	
56	0	47804	
57	0	45320	
58	0	43132	
59	0	41200	
60	0	39504	
61	0	38164	
62	0	37216	
63	0	36500	
64	0	35824	
65	0	35160	
66	0	34504	
67	0	33868	
68	0	33244	
69	0	32608	
70	0	32076	
71	0	31612	
72	0	31264	
73	0	31016	
74	0	30764	
75	0	30456	
76	0	30180	
77	0	30000	
78	0	29940	
79	0	29932	
80	0	29984	
81	0	30072	
82	0	30136	
83	0	30182	
84	0	30068	
85	0	29824	
86	0	29500	
87	0	29200	
88	0	28920	
89	0	28668	
90	0	28508	
91	0	28424	
92	0	28440	
93	0	28488	
94	0	28466	
95	0	28424	
96	0	28388	
97	0	28416	
98	0	28488	
99	0	28648	
100	0	28876	
101	0	29088	
102	0	29280	
103	0	29408	
104	0	29400	
105	0	29196	
106	0	28960	
107	0	28780	
108	0	28618	
109	0	28480	
110	0	28404	
111	0	28412	
112	0	28508	
113	0	28588	
114	0	28584	
115	0	28576	
116	0	28544	
117	0	28590	
118	0	28720	
119	0	28888	
120	0	29124	
121	0	29396	
122	0	29624	
123	0	29780	
124	0	29804	
125	0	29664	
126	0	29448	
127	0	29260	
128	0	29088	
129	0	28960	
130	0	28888	
131	0	28900	
132	0	28970	
133	0	29048	
134	0	29088	
135	0	29100	
136	0	29152	
137	0	29224	
138	0	29328	
139	0	29480	
140	0	29740	
141	0	29992	
142	0	30256	
143	0	30464	
144	0	30500	
145	0	30372	
146	0	30126	
147	0	29912	
148	0	29730	
149	0	29612	
150	0	29536	
151	0	29536	
152	0	29676	
153	0	29796	
154	0	29848	
155	0	29828	
156	0	29836	
157	0	29872	
158	0	29992	
159	0	30200	
160	0	30440	
161	0	30648	
162	0	30852	
163	0	31020	
164	0	31040	
165	0	30933	
166	0	30724	
167	0	30544	
168	0	30416	
169	0	30296	
170	0	30236	
171	0	30250	
172	0	30352	
173	0	30468	
174	0	30604	
175	0	30608	
176	0	30608	
177	0	30656	
178	0	30728	
179	0	30852	
180	0	31000	
181	0	31204	
182	0	31420	
183	0	31640	
184	0	31708	
185	0	31608	
186	0	31432	
187	0	31204	
188	0	31032	
189	0	30884	
190	0	30848	
191	0	30868	
192	0	30900	
193	0	31012	
194	0	31100	
195	0	31096	
196	0	31114	
197	0	31176	
198	0	31304	
199	0	31472	
200	0	31672	
201	0	31904	
202	0	32144	
203	0	32328	
204	0	32344	
205	0	32216	
206	0	32024	
207	0	31856	
208	0	31696	
209	0	31592	
210	0	31532	
211	0	31540	
212	0	31646	
213	0	31776	
214	0	31876	
215	0	31904	
216	0	31913	
217	0	31960	
218	0	32064	
219	0	32228	
220	0	32456	
221	0	32724	
222	0	32944	
223	0	33116	
224	0	33160	
225	0	33092	
226	0	32930	
227	0	32752	
228	0	32608	
229	0	32492	
230	0	32444	
231	0	32456	
232	0	32596	
233	0	32816	
234	0	32948	
235	0	33000	
236	0	33020	
237	0	33064	
238	0	33112	
239	0	33260	
240	0	33512	
241	0	33798	
242	0	34012	
243	0	34196	
244	0	34232	
245	0	34184	
246	0	34052	
247	0	33918	
248	0	33784	
249	0	33700	
250	0	33720	
251	0	33804	
252	0	33984	
253	0	34170	
254	0	34260	
255	0	34300	
256	0	34332	
257	0	34448	
258	0	34612	
259	0	34796	
260	0	35012	
261	0	35296	
262	0	35580	
263	0	35856	
264	0	35996	
265	0	35956	
266	0	35844	
267	0	35744	
268	0	35668	
269	0	35616	
270	0	35592	
271	0	35664	
272	0	35824	
273	0	36044	
274	0	36204	
275	0	36276	
276	0	36340	
277	0	36444	
278	0	36588	
279	0	36840	
280	0	37112	
281	0	37384	
282	0	37594	
283	0	37840	
284	0	37968	
285	0	37960	
286	0	37800	
287	0	37628	
288	0	37464	
289	0	37348	
290	0	37312	
291	0	37352	
292	0	37452	
293	0	37560	
294	0	37600	
295	0	37586	
296	0	37584	
297	0	37592	
298	0	37624	
299	0	37732	
300	0	37960	
301	0	38168	
302	0	38392	
303	0	38612	
304	0	38696	
305	0	38684	
306	0	38524	
307	0	38320	
308	0	38124	
309	0	37972	
310	0	37920	
311	0	37968	
312	0	38072	
313	0	38204	
314	0	38296	
315	0	38264	
316	0	38176	
317	0	38120	
318	0	38104	
319	0	38136	
320	0	38304	
321	0	38440	
322	0	38580	
323	0	38672	
324	0	38636	
325	0	38360	
326	0	37968	
327	0	37552	
328	0	37168	
329	0	36792	
330	0	36512	
331	0	36284	
332	0	36116	
333	0	36008	
334	0	35852	
335	0	35592	
336	0	35320	
337	0	35112	
338	0	34936	
339	0	34824	
340	0	34808	
341	0	34784	
342	0	34712	
343	0	34612	
344	0	34360	
345	0	33992	
346	0	33492	
347	0	32962	
348	0	32480	
349	0	32088	
350	0	31768	
351	0	31520	
352	0	31356	
353	0	31238	
354	0	31068	
355	0	30876	
356	0	30680	
357	0	30560	
358	0	30496	
359	0	30512	
360	0	30592	
361	0	30708	
362	0	30864	
363	0	30970	
364	0	30912	
365	0	30640	
366	0	30288	
367	0	29948	
368	0	29610	
369	0	29304	
370	0	29076	
371	0	28944	
372	0	28920	
373	0	28948	
374	0	28932	
375	0	28857	
376	0	28792	
377	0	28786	
378	0	28888	
379	0	29048	
380	0	29256	
381	0	29492	
382	0	29721	
383	0	29888	
384	0	29922	
385	0	29796	
386	0	29472	
387	0	29144	
388	0	28824	
389	0	28624	
390	0	28512	
391	0	28462	
392	0	28484	
393	0	28548	
394	0	28581	
395	0	28536	
396	0	28488	
397	0	28508	
398	0	28520	
399	0	28590	
400	0	28778	
401	0	29004	
402	0	29252	
403	0	29472	
404	0	29520	
405	0	29440	
406	0	29236	
407	0	28986	
408	0	28740	
409	0	28552	
410	0	28484	
411	0	28552	
412	0	28728	
413	0	28930	
414	0	29088	
415	0	29168	
416	0	29184	
417	0	29240	
418	0	29284	
419	0	29404	
420	0	29568	
421	0	29754	
422	0	29960	
423	0	30152	
424	0	30162	
425	0	30060	
426	0	29780	
427	0	29436	
428	0	29136	
429	0	28924	
430	0	28828	
431	0	28852	
432	0	28984	
433	0	29224	
434	0	29330	
435	0	29368	
436	0	29416	
437	0	29548	
438	0	29740	
439	0	29992	
440	0	30304	
441	0	30668	
442	0	31032	
443	0	31304	
444	0	31340	
445	0	31176	
446	0	30816	
447	0	30368	
448	0	29984	
449	0	29668	
450	0	29444	
451	0	29296	
452	0	29272	
453	0	29424	
454	0	29504	
455	0	29484	
456	0	29384	
457	0	29300	
458	0	29380	
459	0	29644	
460	0	30040	
461	0	30458	
462	0	30920	
463	0	31300	
464	0	31488	
465	0	31448	
466	0	31300	
467	0	31109	
468	0	30880	
469	0	30634	
470	0	30490	
471	0	30458	
472	0	30496	
473	0	30536	
474	0	30520	
475	0	30436	
476	0	30344	
477	0	30340	
478	0	30402	
479	0	30604	
480	0	30944	
481	0	31352	
482	0	31800	
483	0	32256	
484	0	32568	
485	0	32522	
486	0	32308	
487	0	32104	
488	0	31832	
489	0	31572	
490	0	31440	
491	0	31368	
492	0	31348	
493	0	31440	
494	0	31360	
495	0	31180	
496	0	30960	
497	0	30808	
498	0	30764	
499	0	30926	
500	0	31236	
501	0	31630	
502	0	32024	
503	0	32360	
504	0	32424	
505	0	32208	
506	0	31920	
507	0	31704	
508	0	31556	
509	0	31420	
510	0	31396	
511	0	31536	
512	0	31800	
513	0	32020	
514	0	32168	
515	0	32164	
516	0	32068	
517	0	31954	
518	0	31840	
519	0	31756	
520	0	31624	
521	0	31516	
522	0	31456	
523	0	31512	
524	0	31408	
525	0	31192	
526	0	30920	
527	0	30748	
528	0	30538	
529	0	30332	
530	0	30232	
531	0	30208	
532	0	30316	
533	0	30564	
534	0	30764	
535	0	30736	
536	0	30584	
537	0	30484	
538	0	30464	
539	0	30664	
540	0	31000	
541	0	31420	
542	0	31832	
543	0	32196	
544	0	32384	
545	0	32308	
546	0	32048	
547	0	31704	
548	0	31468	
549	0	31364	
550	0	31300	
551	0	31312	
552	0	31444	
553	0	31684	
554	0	31848	
555	0	31772	
556	0	31592	
557	0	31520	
558	0	31560	
559	0	31584	
560	0	31634	
561	0	31792	
562	0	32048	
563	0	32292	
564	0	32306	
565	0	31980	
566	0	31448	
567	0	30846	
568	0	30396	
569	0	30024	
570	0	29826	
571	0	29840	
572	0	30056	
573	0	30540	
574	0	30944	
575	0	31048	
576	0	31008	
577	0	30912	
578	0	30972	
579	0	31368	
580	0	31928	
581	0	32400	
582	0	32784	
583	0	33164	
584	0	33384	
585	0	33356	
586	0	33184	
587	0	32812	
588	0	32384	
589	0	31988	
590	0	31696	
591	0	31644	
592	0	31800	
593	0	32064	
594	0	32120	
595	0	31784	
596	0	31328	
597	0	30984	
598	0	30818	
599	0	30784	
600	0	30928	
601	0	31112	
602	0	31252	
603	0	31504	
604	0	31500	
605	0	31200	
606	0	30828	
607	0	30492	
608	0	30216	
609	0	30048	
610	0	30020	
611	0	30104	
612	0	30288	
613	0	30612	
614	0	30908	
615	0	31034	
616	0	31120	
617	0	31336	
618	0	31824	
619	0	32314	
620	0	32794	
621	0	33338	
622	0	33900	
623	0	34336	
624	0	34504	
625	0	34344	
626	0	33898	
627	0	33408	
628	0	32928	
629	0	32434	
630	0	31952	
631	0	31520	
632	0	31208	
633	0	31184	
634	0	31144	
635	0	30924	
636	0	30720	
637	0	30632	
638	0	30656	
639	0	31004	
640	0	31464	
641	0	31988	
642	0	32528	
643	0	33072	
644	0	33376	
645	0	33158	
646	0	32640	
647	0	32020	
648	0	31400	
649	0	30848	
650	0	30528	
651	0	30564	
652	0	30744	
653	0	31042	
654	0	31168	
655	0	30912	
656	0	30540	
657	0	30314	
658	0	30244	
659	0	30272	
660	0	30436	
661	0	30776	
662	0	31194	
663	0	31788	
664	0	32192	
665	0	32058	
666	0	31560	
667	0	31108	
668	0	30808	
669	0	30498	
670	0	30244	
671	0	30152	
672	0	30260	
673	0	30560	
674	0	30684	
675	0	30552	
676	0	30180	
677	0	29952	
678	0	30072	
679	0	30312	
680	0	30880	
681	0	31640	
682	0	32392	
683	0	33032	
684	0	33204	
685	0	32922	
686	0	32408	
687	0	31884	
688	0	31462	
689	0	31068	
690	0	30680	
691	0	30460	
692	0	30280	
693	0	30258	
694	0	30296	
695	0	30088	
696	0	29760	
697	0	29632	
698	0	29656	
699	0	29892	
700	0	30300	
701	0	30784	
702	0	31292	
703	0	31806	
704	0	32100	
705	0	32000	
706	0	31592	
707	0	31032	
708	0	30610	
709	0	30232	
710	0	29952	
711	0	29864	
712	0	29992	
713	0	30304	
714	0	30696	
715	0	30932	
716	0	31044	
717	0	31164	
718	0	31332	
719	0	31612	
720	0	32068	
721	0	32640	
722	0	33188	
723	0	33564	
724	0	33568	
725	0	33120	
726	0	32376	
727	0	31622	
728	0	30936	
729	0	30208	
730	0	29636	
731	0	29392	
732	0	29424	
733	0	29624	
734	0	29792	
735	0	29848	
736	0	29852	
737	0	29992	
738	0	30288	
739	0	30690	
740	0	31176	
741	0	31592	
742	0	32008	
743	0	32396	
744	0	32672	
745	0	32464	
746	0	31936	
747	0	31232	
748	0	30604	
749	0	30056	
750	0	29596	
751	0	29304	
752	0	29336	
753	0	29492	
754	0	29624	
755	0	29552	
756	0	29448	
757	0	29512	
758	0	29808	
759	0	30194	
760	0	30604	
761	0	31024	
762	0	31372	
763	0	31808	
764	0	32236	
765	0	32168	
766	0	31756	
767	0	31280	
768	0	30725	
769	0	30092	
770	0	29280	
771	0	28408	
772	0	27828	
773	0	27720	
774	0	27796	
775	0	27792	
776	0	27704	
777	0	27600	
778	0	27592	
779	0	27744	
780	0	28128	
781	0	28552	
782	0	28912	
783	0	29448	
784	0	29916	
785	0	29964	
786	0	29760	
787	0	29434	
788	0	29048	
789	0	28706	
790	0	28536	
791	0	28548	
792	0	28564	
793	0	28696	
794	0	28932	
795	0	28960	
796	0	28892	
797	0	28872	
798	0	29020	
799	0	29362	
800	0	29892	
801	0	30432	
802	0	30890	
803	0	31408	
804	0	31736	
805	0	32008	
806	0	31968	
807	0	31756	
808	0	31632	
809	0	31660	
810	0	31608	
811	0	31480	
812	0	31436	
813	0	31368	
814	0	31184	
815	0	30944	
816	0	30680	
817	0	30408	
818	0	30272	
819	0	30208	
820	0	30120	
821	0	30160	
822	0	30378	
823	0	30712	
824	0	30960	
825	0	30908	
826	0	30660	
827	0	30233	
828	0	29532	
829	0	29104	
830	0	28900	
831	0	28916	
832	0	29108	
833	0	29280	
834	0	29336	
835	0	29418	
836	0	29476	
837	0	29632	
838	0	29978	
839	0	30564	
840	0	31152	
841	0	31480	
842	0	31672	
843	0	31900	
844	0	32364	
845	0	32564	
846	0	32420	
847	0	32296	
848	0	32120	
849	0	31756	
850	0	31416	
851	0	31296	
852	0	31076	
853	0	31050	
854	0	31328	
855	0	31900	
856	0	32364	
857	0	32788	
858	0	33060	
859	0	32864	
860	0	33024	
861	0	33344	
862	0	33614	
863	0	33592	
864	0	33336	
865	0	32892	
866	0	32392	
867	0	31528	
868	0	30680	
869	0	30064	
870	0	29720	
871	0	29512	
872	0	29336	
873	0	29304	
874	0	29448	
875	0	29736	
876	0	30156	
877	0	30600	
878	0	30876	
879	0	31056	
880	0	31316	
881	0	31444	
882	0	31512	
883	0	31616	
884	0	31776	
885	0	32016	
886	0	32148	
887	0	32176	
888	0	32296	
889	0	32408	
890	0	32564	
891	0	32580	
892	0	32524	
893	0	32344	
894	0	32068	
895	0	31896	
896	0	31688	
897	0	31484	
898	0	31434	
899	0	31384	
900	0	31236	
901	0	30968	
902	0	30660	
903	0	30516	
904	0	30468	
905	0	30336	
906	0	30264	
907	0	30248	
908	0	30222	
909	0	30128	
910	0	30104	
911	0	30124	
912	0	30120	
913	0	30064	
914	0	30164	
915	0	30612	
916	0	31104	
917	0	31372	
918	0	31604	
919	0	31736	
920	0	31544	
921	0	31604	
922	0	31692	
923	0	31424	
924	0	31160	
925	0	31290	
926	0	31404	
927	0	31376	
928	0	31552	
929	0	31940	
930	0	32060	
931	0	32280	
932	0	32384	
933	0	32468	
934	0	32680	
935	0	33032	
936	0	33404	
937	0	33640	
938	0	33736	
939	0	33792	
940	0	33732	
941	0	33640	
942	0	33384	
943	0	33092	
944	0	32994	
945	0	33366	
946	0	34032	
947	0	34728	
948	0	35312	
949	0	35872	
950	0	36384	
951	0	36832	
952	0	36900	
953	0	36528	
954	0	36276	
955	0	36488	
956	0	36888	
957	0	37320	
958	0	37588	
959	0	37896	
960	0	37908	
961	0	37396	
962	0	36672	
963	0	36104	
964	0	35480	
965	0	35168	
966	0	35276	
967	0	35752	
968	0	36100	
969	0	36208	
970	0	36168	
971	0	36232	
972	0	36572	
973	0	37056	
974	0	37668	
975	0	38440	
976	0	39500	
977	0	40876	
978	0	42244	
979	0	43848	
980	0	45708	
981	0	47472	
982	0	48832	
983	0	50088	
984	0	51268	
985	0	52896	
986	0	55068	
987	0	57712	
988	0	60836	
989	0	63480	
990	0	64928	
991	0	65535	
992	0	65535	
993	0	65535	
994	0	65535	
995	0	65535	
996	0	65535	
997	0	65535	
998	0	65535	
999	0	65535	
1000	0	65535	
1001	0	65400	
1002	0	65280	
1003	0	65156	
1004	0	61200	
1005	0	56616	
1006	0	53092	
1007	0	50968	
1008	0	49080	
1009	0	47372	
1010	0	46144	
1011	0	44672	
1012	0	43424	
1013	0	42624	
1014	0	41976	
1015	0	41776	
1016	0	41932	
1017	0	41904	
1018	0	41770	
1019	0	41012	
1020	0	40064	
1021	0	39098	
1022	0	38344	
1023	0	37620	
1024	0	37040	
1025	0	37052	
1026	0	37312	
1027	0	37976	
1028	0	38800	
1029	0	39424	
1030	0	39874	
1031	0	40172	
1032	0	40168	
1033	0	39688	
1034	0	39272	
1035	0	39500	
1036	0	39924	
1037	0	40392	
1038	0	40504	
1039	0	40424	
1040	0	40436	
1041	0	40344	
1042	0	40060	
1043	0	39824	
1044	0	39480	
1045	0	39632	
1046	0	40152	
1047	0	40852	
1048	0	41704	
1049	0	42616	
1050	0	43384	
1051	0	44152	
1052	0	44772	
1053	0	45176	
1054	0	45620	
1055	0	46196	
1056	0	46928	
1057	0	47552	
1058	0	48116	
1059	0	48416	
1060	0	48156	
1061	0	47668	
1062	0	47028	
1063	0	46184	
1064	0	45928	
1065	0	46068	
1066	0	46324	
1067	0	46712	
1068	0	46792	
1069	0	46484	
1070	0	45912	
1071	0	45296	
1072	0	44676	
1073	0	44368	
1074	0	44232	
1075	0	44216	
1076	0	44340	
1077	0	44832	
1078	0	45576	
1079	0	46288	
1080	0	46480	
1081	0	46568	
1082	0	46640	
1083	0	46656	
1084	0	46412	
1085	0	46508	
1086	0	46972	
1087	0	47540	
1088	0	48112	
1089	0	48560	
1090	0	48808	
1091	0	48800	
1092	0	48632	
1093	0	48240	
1094	0	48056	
1095	0	47732	
1096	0	47366	
1097	0	46992	
1098	0	46608	
1099	0	45984	
1100	0	45776	
1101	0	45528	
1102	0	45332	
1103	0	45292	
1104	0	45220	
1105	0	45736	
1106	0	46760	
1107	0	47800	
1108	0	48588	
1109	0	49384	
1110	0	50024	
1111	0	50440	
1112	0	50608	
1113	0	50612	
1114	0	50540	
1115	0	50500	
1116	0	50804	
1117	0	51000	
1118	0	50828	
1119	0	50524	
1120	0	49832	
1121	0	49028	
1122	0	48424	
1123	0	46776	
1124	0	45070	
1125	0	44336	
1126	0	44572	
1127	0	45492	
1128	0	46680	
1129	0	47764	
1130	0	48516	
1131	0	48768	
1132	0	48656	
1133	0	48436	
1134	0	48168	
1135	0	48464	
1136	0	48956	
1137	0	49260	
1138	0	49296	
1139	0	49100	
1140	0	48748	
1141	0	48168	
1142	0	47480	
1143	0	46648	
1144	0	45408	
1145	0	44456	
1146	0	44256	
1147	0	44416	
1148	0	44680	
1149	0	45168	
1150	0	45760	
1151	0	46332	
1152	0	46580	
1153	0	46704	
1154	0	46464	
1155	0	46412	
1156	0	46644	
1157	0	46872	
1158	0	46628	
1159	0	46016	
1160	0	44804	
1161	0	43636	
1162	0	42420	
1163	0	41424	
1164	0	40992	
1165	0	41044	
1166	0	41260	
1167	0	41848	
1168	0	42752	
1169	0	43656	
1170	0	44140	
1171	0	44204	
1172	0	43776	
1173	0	43000	
1174	0	42180	
1175	0	41648	
1176	0	41784	
1177	0	42036	
1178	0	42372	
1179	0	42344	
1180	0	42000	
1181	0	41312	
1182	0	40664	
1183	0	39596	
1184	0	38584	
1185	0	38165	
1186	0	37996	
1187	0	38192	
1188	0	38472	
1189	0	38812	
1190	0	39468	
1191	0	39848	
1192	0	40004	
1193	0	39816	
1194	0	39544	
1195	0	39476	
1196	0	39656	
1197	0	39824	
1198	0	39720	
1199	0	39394	
1200	0	39036	
1201	0	38536	
1202	0	38016	
1203	0	37578	
1204	0	37128	
1205	0	37376	
1206	0	38042	
1207	0	38776	
1208	0	39664	
1209	0	40304	
1210	0	40484	
1211	0	40264	
1212	0	39808	
1213	0	39192	
1214	0	38712	
1215	0	38432	
1216	0	38272	
1217	0	38030	
1218	0	38348	
1219	0	38384	
1220	0	38248	
1221	0	38056	
1222	0	37712	
1223	0	37444	
1224	0	37144	
1225	0	37852	
1226	0	39352	
1227	0	40204	
1228	0	41160	
1229	0	41848	
1230	0	42282	
1231	0	42080	
1232	0	41372	
1233	0	40520	
1234	0	39556	
1235	0	39216	
1236	0	39228	
1237	0	39152	
1238	0	39464	
1239	0	39680	
1240	0	39544	
1241	0	39284	
1242	0	38772	
1243	0	38284	
1244	0	37660	
1245	0	37884	
1246	0	38976	
1247	0	39996	
1248	0	40668	
1249	0	41328	
1250	0	41608	
1251	0	41568	
1252	0	41188	
1253	0	40860	
1254	0	40548	
1255	0	40344	
1256	0	40512	
1257	0	40704	
1258	0	40976	
1259	0	41100	
1260	0	40504	
1261	0	39376	
1262	0	38464	
1263	0	37644	
1264	0	37032	
1265	0	36976	
1266	0	37492	
1267	0	38116	
1268	0	38752	
1269	0	39136	
1270	0	39272	
1271	0	39184	
1272	0	38788	
1273	0	38126	
1274	0	37292	
1275	0	36548	
1276	0	36176	
1277	0	36172	
1278	0	36060	
1279	0	35908	
1280	0	35506	
1281	0	34640	
1282	0	33920	
1283	0	32720	
1284	0	31388	
1285	0	30760	
1286	0	30688	
1287	0	31376	
1288	0	31850	
1289	0	32680	
1290	0	33064	
1291	0	33276	
1292	0	32444	
1293	0	31068	
1294	0	30160	
1295	0	29612	
1296	0	29148	
1297	0	28980	
1298	0	28820	
1299	0	28356	
1300	0	27704	
1301	0	26868	
1302	0	25873	
1303	0	24552	
1304	0	23172	
1305	0	22452	
1306	0	22580	
1307	0	22868	
1308	0	23284	
1309	0	24010	
1310	0	24754	
1311	0	24988	
1312	0	24984	
1313	0	24588	
1314	0	23836	
1315	0	23648	
1316	0	23758	
1317	0	23816	
1318	0	23736	
1319	0	23404	
1320	0	22884	
1321	0	22288	
1322	0	21425	
1323	0	20628	
1324	0	20093	
1325	0	20096	
1326	0	20580	
1327	0	21316	
1328	0	21992	
1329	0	22548	
1330	0	23192	
1331	0	23426	
1332	0	23478	
1333	0	23316	
1334	0	23176	
1335	0	23340	
1336	0	23928	
1337	0	24592	
1338	0	24848	
1339	0	24372	
1340	0	23396	
1341	0	21974	
1342	0	20292	
1343	0	18954	
1344	0	18300	
1345	0	18428	
1346	0	19328	
1347	0	20618	
1348	0	21676	
1349	0	22660	
1350	0	23248	
1351	0	23532	
1352	0	24080	
1353	0	24328	
1354	0	23980	
1355	0	24100	
1356	0	24440	
1357	0	24400	
1358	0	24588	
1359	0	24428	
1360	0	24004	
1361	0	23476	
1362	0	22704	
1363	0	21708	
1364	0	20712	
1365	0	20610	
1366	0	21036	
1367	0	21660	
1368	0	22312	
1369	0	23036	
1370	0	23506	
1371	0	23893	
1372	0	24172	
1373	0	23856	
1374	0	24016	
1375	0	24628	
1376	0	25344	
1377	0	25960	
1378	0	26372	
1379	0	26458	
1380	0	26284	
1381	0	25948	
1382	0	25486	
1383	0	24992	
1384	0	24464	
1385	0	24628	
1386	0	25212	
1387	0	26020	
1388	0	26744	
1389	0	27384	
1390	0	27852	
1391	0	28296	
1392	0	28532	
1393	0	28552	
1394	0	28456	
1395	0	28868	
1396	0	29360	
1397	0	29888	
1398	0	30332	
1399	0	30428	
1400	0	30284	
1401	0	29588	
1402	0	29136	
1403	0	28896	
1404	0	28728	
1405	0	28930	
1406	0	29416	
1407	0	30028	
1408	0	30560	
1409	0	30824	
1410	0	31452	
1411	0	31444	
1412	0	31294	
1413	0	31148	
1414	0	30804	
1415	0	30966	
1416	0	31244	
1417	0	31598	
1418	0	31732	
1419	0	31764	
1420	0	31644	
1421	0	31536	
1422	0	31064	
1423	0	30464	
1424	0	29872	
1425	0	29740	
1426	0	30140	
1427	0	30756	
1428	0	31732	
1429	0	32140	
1430	0	32284	
1431	0	32536	
1432	0	32672	
1433	0	32856	
1434	0	32804	
1435	0	32880	
1436	0	32972	
1437	0	33084	
1438	0	33204	
1439	0	33348	
1440	0	32824	
1441	0	31992	
1442	0	31140	
1443	0	30300	
1444	0	30052	
1445	0	30576	
1446	0	31232	
1447	0	31796	
1448	0	32260	
1449	0	32828	
1450	0	32906	
1451	0	33016	
1452	0	32968	
1453	0	32832	
1454	0	32852	
1455	0	33096	
1456	0	33280	
1457	0	33264	
1458	0	33220	
1459	0	33192	
1460	0	32856	
1461	0	32664	
1462	0	32424	
1463	0	32128	
1464	0	31952	
1465	0	32356	
1466	0	33388	
1467	0	34136	
1468	0	34720	
1469	0	35232	
1470	0	35532	
1471	0	35372	
1472	0	35232	
1473	0	34632	
1474	0	34052	
1475	0	33852	
1476	0	34264	
1477	0	34476	
1478	0	34856	
1479	0	35236	
1480	0	35328	
1481	0	35120	
1482	0	35184	
1483	0	35108	
1484	0	34972	
1485	0	35228	
1486	0	35696	
1487	0	36096	
1488	0	36196	
1489	0	36416	
1490	0	36672	
1491	0	36656	
1492	0	36428	
1493	0	36198	
1494	0	36536	
1495	0	37240	
1496	0	38120	
1497	0	38928	
1498	0	39184	
1499	0	39408	
1500	0	39232	
1501	0	38996	
1502	0	38692	
1503	0	38400	
1504	0	38224	
1505	0	38284	
1506	0	38490	
1507	0	38800	
1508	0	39400	
1509	0	39704	
1510	0	40108	
1511	0	40272	
1512	0	40272	
1513	0	40268	
1514	0	40056	
1515	0	40064	
1516	0	40352	
1517	0	40808	
1518	0	40932	
1519	0	41040	
1520	0	41016	
1521	0	40020	
1522	0	39292	
1523	0	38528	
1524	0	37688	
1525	0	37496	
1526	0	37832	
1527	0	38128	
1528	0	38520	
1529	0	39220	
1530	0	39536	
1531	0	39592	
1532	0	39536	
1533	0	39304	
1534	0	39132	
1535	0	39224	
1536	0	39524	
1537	0	39508	
1538	0	39296	
1539	0	38892	
1540	0	38616	
1541	0	38324	
1542	0	37680	
1543	0	36956	
1544	0	36092	
1545	0	35876	
1546	0	36016	
1547	0	36532	
1548	0	37000	
1549	0	37420	
1550	0	37856	
1551	0	37874	
1552	0	37728	
1553	0	37360	
1554	0	37116	
1555	0	37164	
1556	0	37344	
1557	0	37608	
1558	0	37908	
1559	0	37984	
1560	0	37780	
1561	0	37312	
1562	0	36676	
1563	0	36248	
1564	0	35856	
1565	0	35804	
1566	0	36096	
1567	0	36632	
1568	0	37092	
1569	0	37608	
1570	0	37680	
1571	0	37396	
1572	0	37124	
1573	0	36988	
1574	0	36480	
1575	0	36364	
1576	0	36728	
1577	0	36992	
1578	0	37108	
1579	0	37160	
1580	0	36984	
1581	0	36820	
1582	0	36604	
1583	0	35904	
1584	0	35024	
1585	0	34848	
1586	0	34992	
1587	0	35560	
1588	0	36072	
1589	0	36608	
1590	0	36896	
1591	0	36808	
1592	0	36624	
1593	0	36652	
1594	0	36508	
1595	0	36320	
1596	0	36312	
1597	0	36632	
1598	0	36208	
1599	0	35556	
1600	0	35000	
1601	0	34820	
1602	0	34420	
1603	0	34320	
1604	0	34732	
1605	0	35064	
1606	0	35456	
1607	0	36092	
1608	0	36784	
1609	0	37264	
1610	0	37516	
1611	0	37672	
1612	0	37648	
1613	0	37568	
1614	0	37448	
1615	0	37680	
1616	0	38088	
1617	0	38028	
1618	0	37972	
1619	0	37520	
1620	0	36440	
1621	0	35208	
1622	0	34140	
1623	0	33864	
1624	0	33812	
1625	0	33576	
1626	0	33952	
1627	0	34704	
1628	0	35064	
1629	0	35588	
1630	0	36344	
1631	0	36944	
1632	0	37128	
1633	0	36816	
1634	0	36608	
1635	0	36616	
1636	0	36816	
1637	0	36924	
1638	0	36780	
1639	0	36344	
1640	0	36376	
1641	0	36064	
1642	0	35636	
1643	0	35784	
1644	0	35864	
1645	0	35900	
1646	0	36284	
1647	0	36648	
1648	0	36632	
1649	0	36536	
1650	0	36836	
1651	0	36980	
1652	0	37104	
1653	0	37024	
1654	0	36712	
1655	0	36776	
1656	0	36960	
1657	0	37232	
1658	0	37440	
1659	0	37616	
1660	0	37536	
1661	0	37288	
1662	0	36752	
1663	0	35954	
1664	0	35720	
1665	0	35888	
1666	0	35916	
1667	0	36504	
1668	0	37076	
1669	0	37204	
1670	0	37280	
1671	0	37296	
1672	0	36864	
1673	0	36764	
1674	0	36336	
1675	0	36016	
1676	0	36220	
1677	0	36380	
1678	0	36384	
1679	0	36408	
1680	0	36432	
1681	0	36548	
1682	0	36040	
1683	0	35708	
1684	0	35520	
1685	0	36026	
1686	0	36348	
1687	0	36460	
1688	0	36356	
1689	0	36380	
1690	0	36088	
1691	0	36316	
1692	0	36524	
1693	0	36356	
1694	0	36220	
1695	0	36304	
1696	0	36344	
1697	0	36684	
1698	0	37084	
1699	0	37656	
1700	0	36964	
1701	0	36192	
1702	0	35696	
1703	0	35328	
1704	0	34804	
1705	0	34656	
1706	0	34632	
1707	0	34928	
1708	0	35212	
1709	0	35308	
1710	0	35176	
1711	0	34756	
1712	0	34704	
1713	0	34540	
1714	0	34302	
1715	0	33908	
1716	0	33780	
1717	0	33980	
1718	0	34120	
1719	0	34276	
1720	0	34008	
1721	0	33660	
1722	0	33200	
1723	0	32876	
1724	0	32364	
1725	0	32392	
1726	0	32536	
1727	0	33196	
1728	0	33556	
1729	0	33468	
1730	0	33710	
1731	0	33732	
1732	0	33424	
1733	0	33228	
1734	0	33276	
1735	0	33516	
1736	0	33748	
1737	0	34288	
1738	0	34482	
1739	0	34266	
1740	0	33808	
1741	0	33434	
1742	0	33176	
1743	0	32676	
1744	0	32232	
1745	0	32344	
1746	0	32584	
1747	0	32980	
1748	0	33124	
1749	0	33440	
1750	0	33944	
1751	0	34048	
1752	0	34228	
1753	0	34184	
1754	0	33984	
1755	0	33844	
1756	0	34132	
1757	0	34500	
1758	0	34788	
1759	0	34744	
1760	0	34588	
1761	0	34330	
1762	0	33852	
1763	0	33284	
1764	0	32928	
1765	0	33072	
1766	0	33496	
1767	0	34188	
1768	0	34762	
1769	0	35450	
1770	0	35644	
1771	0	35832	
1772	0	35520	
1773	0	34528	
1774	0	33848	
1775	0	33728	
1776	0	33868	
1777	0	34032	
1778	0	34720	
1779	0	35024	
1780	0	34916	
1781	0	34704	
1782	0	34736	
1783	0	34624	
1784	0	33876	
1785	0	33656	
1786	0	34248	
1787	0	34244	
1788	0	33820	
1789	0	33848	
1790	0	33864	
1791	0	33656	
1792	0	33516	
1793	0	33228	
1794	0	33056	
1795	0	33616	
1796	0	34408	
1797	0	34904	
1798	0	35200	
1799	0	35762	
1800	0	36292	
1801	0	36988	
1802	0	37496	
1803	0	38208	
1804	0	38824	
1805	0	40068	
1806	0	41920	
1807	0	43952	
1808	0	46100	
1809	0	48636	
1810	0	51096	
1811	0	52808	
1812	0	53696	
1813	0	54136	
1814	0	54356	
1815	0	54440	
1816	0	54452	
1817	0	54448	
1818	0	54392	
1819	0	54344	
1820	0	54280	
1821	0	54220	
1822	0	54160	
1823	0	54096	
1824	0	54036	
1825	0	53960	
1826	0	53904	
1827	0	53840	
1828	0	53780	
1829	0	53712	
1830	0	50300	
1831	0	47288	
1832	0	45104	
1833	0	43056	
1834	0	41148	
1835	0	39416	
1836	0	38048	
1837	0	37720	
1838	0	37576	
1839	0	37648	
1840	0	37192	
1841	0	36772	
1842	0	36264	
1843	0	35668	
1844	0	35096	
1845	0	34992	
1846	0	34964	
1847	0	34932	
1848	0	34896	
1849	0	34956	
1850	0	34896	
1851	0	34824	
1852	0	34480	
1853	0	34128	
1854	0	33832	
1855	0	33536	
1856	0	33444	
1857	0	33544	
1858	0	33476	
1859	0	33504	
1860	0	33392	
1861	0	33200	
1862	0	32876	
1863	0	32448	
1864	0	32064	
1865	0	31888	
1866	0	31992	
1867	0	31900	
1868	0	32788	
1869	0	33576	
1870	0	33576	
1871	0	33560	
1872	0	33476	
1873	0	33196	
1874	0	32904	
1875	0	33032	
1876	0	33368	
1877	0	33480	
1878	0	33584	
1879	0	33424	
1880	0	33672	
1881	0	33648	
1882	0	33934	
1883	0	34012	
1884	0	33432	
1885	0	33212	
1886	0	33456	
1887	0	34180	
1888	0	34784	
1889	0	34976	
1890	0	34740	
1891	0	34656	
1892	0	34580	
1893	0	34188	
1894	0	33724	
1895	0	34084	
1896	0	34552	
1897	0	34724	
1898	0	34840	
1899	0	35000	
1900	0	34920	
1901	0	34636	
1902	0	34324	
1903	0	33712	
1904	0	33182	
1905	0	33604	
1906	0	34128	
1907	0	34708	
1908	0	35352	
1909	0	35840	
1910	0	36064	
1911	0	36320	
1912	0	36088	
1913	0	35628	
1914	0	35432	
1915	0	35496	
1916	0	35768	
1917	0	36088	
1918	0	36404	
1919	0	36672	
1920	0	36612	
1921	0	36688	
1922	0	36432	
1923	0	36276	
1924	0	36408	
1925	0	36392	
1926	0	36232	
1927	0	36604	
1928	0	37220	
1929	0	37448	
1930	0	37544	
1931	0	37508	
1932	0	37104	
1933	0	36660	
1934	0	36700	
1935	0	37320	
1936	0	37784	
1937	0	38060	
1938	0	38428	
1939	0	38392	
1940	0	38292	
1941	0	38068	
1942	0	38016	
1943	0	37800	
1944	0	37556	
1945	0	37448	
1946	0	37628	
1947	0	37828	
1948	0	38032	
1949	0	38320	
1950	0	38484	
1951	0	38676	
1952	0	38528	
1953	0	38288	
1954	0	38184	
1955	0	38424	
1956	0	38700	
1957	0	38896	
1958	0	39080	
1959	0	39348	
1960	0	39736	
1961	0	38918	
1962	0	38332	
1963	0	37984	
1964	0	37568	
1965	0	37352	
1966	0	37556	
1967	0	38320	
1968	0	38444	
1969	0	38416	
1970	0	38284	
1971	0	38572	
1972	0	39204	
1973	0	39304	
1974	0	39084	
1975	0	39068	
1976	0	39004	
1977	0	38940	
1978	0	38872	
1979	0	38716	
1980	0	38316	
1981	0	38380	
1982	0	37800	
1983	0	37388	
1984	0	36988	
1985	0	36793	
1986	0	36936	
1987	0	37204	
1988	0	37632	
1989	0	38016	
1990	0	38356	
1991	0	39096	
1992	0	39592	
1993	0	39712	
1994	0	39334	
1995	0	39316	
1996	0	39428	
1997	0	39608	
1998	0	39476	
1999	0	39324	
2000	0	39144	
2001	0	38620	
2002	0	38340	
2003	0	38000	
2004	0	37632	
2005	0	37304	
2006	0	37388	
2007	0	37644	
2008	0	37984	
2009	0	38316	
2010	0	38976	
2011	0	38968	
2012	0	38792	
2013	0	38812	
2014	0	38956	
2015	0	38872	
2016	0	39122	
2017	0	39312	
2018	0	39604	
2019	0	39880	
2020	0	40112	
2021	0	40308	
2022	0	40100	
2023	0	39920	
2024	0	39840	
2025	0	39540	
2026	0	39840	
2027	0	39908	
2028	0	39768	
2029	0	40132	
2030	0	40388	
2031	0	40400	
2032	0	40530	
2033	0	40384	
2034	0	40008	
2035	0	40068	
2036	0	40676	
2037	0	41026	
2038	0	41216	
2039	0	41180	
2040	0	41504	
2041	0	41396	
2042	0	41316	
2043	0	41088	
2044	0	41088	
2045	0	41100	
2046	0	41080	
2047	0	41172	
2048	0	40960	
2049	0	40880	
2050	0	41088	
2051	0	41276	
2052	0	41388	
2053	0	42028	
2054	0	42136	
2055	0	42400	
2056	0	42524	
2057	0	42712	
2058	0	42472	
2059	0	42172	
2060	0	41948	
2061	0	42500	
2062	0	41608	
2063	0	41356	
2064	0	41172	
2065	0	41016	
2066	0	41264	
2067	0	41808	
2068	0	41896	
2069	0	41888	
2070	0	41984	
2071	0	41936	
2072	0	41672	
2073	0	41728	
2074	0	41784	
2075	0	41800	
2076	0	41776	
2077	0	41672	
2078	0	41536	
2079	0	41604	
2080	0	41648	
2081	0	41728	
2082	0	41568	
2083	0	41260	
2084	0	41016	
2085	0	40556	
2086	0	40448	
2087	0	40688	
2088	0	40960	
2089	0	40776	
2090	0	40576	
2091	0	40436	
2092	0	40484	
2093	0	41164	
2094	0	41520	
2095	0	41404	
2096	0	41360	
2097	0	41536	
2098	0	41408	
2099	0	40700	
2100	0	39996	
2101	0	39524	
2102	0	39408	
2103	0	39240	
2104	0	38800	
2105	0	38596	
2106	0	38364	
2107	0	38298	
2108	0	38252	
2109	0	38188	
2110	0	37856	
2111	0	37592	
2112	0	37052	
2113	0	36768	
2114	0	36508	
2115	0	36552	
2116	0	36840	
2117	0	37020	
2118	0	36952	
2119	0	37116	
2120	0	37016	
2121	0	36612	
2122	0	36204	
2123	0	36152	
2124	0	35816	
2125	0	35440	
2126	0	35392	
2127	0	35524	
2128	0	35384	
2129	0	35376	
2130	0	35372	
2131	0	35352	
2132	0	35480	
2133	0	35412	
2134	0	34936	
2135	0	34724	
2136	0	34896	
2137	0	35128	
2138	0	35236	
2139	0	35410	
2140	0	35632	
2141	0	35620	
2142	0	35416	
2143	0	34764	
2144	0	34368	
2145	0	34276	
2146	0	34252	
2147	0	34588	
2148	0	35090	
2149	0	35288	
2150	0	35280	
2151	0	35200	
2152	0	34988	
2153	0	34968	
2154	0	34916	
2155	0	34938	
2156	0	34860	
2157	0	34990	
2158	0	35316	
2159	0	35656	
2160	0	35644	
2161	0	35596	
2162	0	35544	
2163	0	35008	
2164	0	34768	
2165	0	35512	
2166	0	35624	
2167	0	35864	
2168	0	36960	
2169	0	36732	
2170	0	36808	
2171	0	36952	
2172	0	36928	
2173	0	36796	
2174	0	36272	
2175	0	36232	
2176	0	36164	
2177	0	36400	
2178	0	36524	
2179	0	36392	
2180	0	36296	
2181	0	36288	
2182	0	36372	
2183	0	36600	
2184	0	36680	
2185	0	36768	
2186	0	36922	
2187	0	37024	
2188	0	37204	
2189	0	37344	
2190	0	37472	
2191	0	37396	
2192	0	37178	
2193	0	37026	
2194	0	36892	
2195	0	37008	
2196	0	37312	
2197	0	37804	
2198	0	38088	
2199	0	38224	
2200	0	38144	
2201	0	37720	
2202	0	37352	
2203	0	36912	
2204	0	36108	
2205	0	35524	
2206	0	35944	
2207	0	36512	
2208	0	36922	
2209	0	37080	
2210	0	37288	
2211	0	37376	
2212	0	37480	
2213	0	37480	
2214	0	37504	
2215	0	37312	
2216	0	37100	
2217	0	37144	
2218	0	37128	
2219	0	37012	
2220	0	37168	
2221	0	37280	
2222	0	37556	
2223	0	36996	
2224	0	36700	
2225	0	36908	
2226	0	37348	
2227	0	37792	
2228	0	37936	
2229	0	37760	
2230	0	37608	
2231	0	37440	
2232	0	36776	
2233	0	36360	
2234	0	36292	
2235	0	36464	
2236	0	36960	
2237	0	37156	
2238	0	37212	
2239	0	37520	
2240	0	37816	
2241	0	37780	
2242	0	37892	
2243	0	37914	
2244	0	37696	
2245	0	37208	
2246	0	36700	
2247	0	36352	
2248	0	36208	
2249	0	36136	
2250	0	36161	
2251	0	36300	
2252	0	36508	
2253	0	36680	
2254	0	36536	
2255	0	36324	
2256	0	36584	
2257	0	36960	
2258	0	36968	
2259	0	36808	
2260	0	36248	
2261	0	35720	
2262	0	35256	
2263	0	34904	
2264	0	34464	
2265	0	34908	
2266	0	35956	
2267	0	36024	
2268	0	35832	
2269	0	35920	
2270	0	36348	
2271	0	36792	
2272	0	36944	
2273	0	36764	
2274	0	36428	
2275	0	36448	
2276	0	36536	
2277	0	36136	
2278	0	36492	
2279	0	36868	
2280	0	36560	
2281	0	36089	
2282	0	36024	
2283	0	36048	
2284	0	35560	
2285	0	35260	
2286	0	35364	
2287	0	35712	
2288	0	35973	
2289	0	36272	
2290	0	36300	
2291	0	36192	
2292	0	36216	
2293	0	36288	
2294	0	36224	
2295	0	36232	
2296	0	36272	
2297	0	36444	
2298	0	36544	
2299	0	36556	
2300	0	36816	
2301	0	36812	
2302	0	36592	
2303	0	36424	
2304	0	36256	
2305	0	36316	
2306	0	35876	
2307	0	36288	
2308	0	36570	
2309	0	36676	
2310	0	37380	
2311	0	37136	
2312	0	36976	
2313	0	36936	
2314	0	36972	
2315	0	36900	
2316	0	36776	
2317	0	36724	
2318	0	37020	
2319	0	37400	
2320	0	37488	
2321	0	36968	
2322	0	36496	
2323	0	36044	
2324	0	35688	
2325	0	35548	
2326	0	35652	
2327	0	35816	
2328	0	35832	
2329	0	35992	
2330	0	36564	
2331	0	36816	
2332	0	36860	
2333	0	36780	
2334	0	36712	
2335	0	36756	
2336	0	37040	
2337	0	37352	
2338	0	37482	
2339	0	37576	
2340	0	37616	
2341	0	37824	
2342	0	37578	
2343	0	37176	
2344	0	36860	
2345	0	36472	
2346	0	36464	
2347	0	36476	
2348	0	36574	
2349	0	36716	
2350	0	36800	
2351	0	36816	
2352	0	36736	
2353	0	36656	
2354	0	36884	
2355	0	37044	
2356	0	37324	
2357	0	37080	
2358	0	36832	
2359	0	36400	
2360	0	35964	
2361	0	35572	
2362	0	35716	
2363	0	35552	
2364	0	35984	
2365	0	35448	
2366	0	35564	
2367	0	36236	
2368	0	36324	
2369	0	36228	
2370	0	35940	
2371	0	35714	
2372	0	35196	
2373	0	35000	
2374	0	35244	
2375	0	35548	
2376	0	35884	
2377	0	36340	
2378	0	36660	
2379	0	36584	
2380	0	36248	
2381	0	35824	
2382	0	35096	
2383	0	34692	
2384	0	34868	
2385	0	34964	
2386	0	34720	
2387	0	34620	
2388	0	34866	
2389	0	35168	
2390	0	35768	
2391	0	35988	
2392	0	36068	
2393	0	36136	
2394	0	36360	
2395	0	36296	
2396	0	36268	
2397	0	35964	
2398	0	35480	
2399	0	35180	
2400	0	34820	
2401	0	34588	
2402	0	34520	
2403	0	34604	
2404	0	34556	
2405	0	34268	
2406	0	33932	
2407	0	33768	
2408	0	33732	
2409	0	33480	
2410	0	33136	
2411	0	33192	
2412	0	33216	
2413	0	33192	
2414	0	33224	
2415	0	33424	
2416	0	33540	
2417	0	33816	
2418	0	34064	
2419	0	34036	
2420	0	34100	
2421	0	34212	
2422	0	33952	
2423	0	33600	
2424	0	32984	
2425	0	33020	
2426	0	33048	
2427	0	33124	
2428	0	33348	
2429	0	33504	
2430	0	33428	
2431	0	33228	
2432	0	33004	
2433	0	32888	
2434	0	32500	
2435	0	32956	
2436	0	33444	
2437	0	33708	
2438	0	34180	
2439	0	34308	
2440	0	34232	
2441	0	34264	
2442	0	34232	
2443	0	33768	
2444	0	33136	
2445	0	32296	
2446	0	31656	
2447	0	31288	
2448	0	31248	
2449	0	31784	
2450	0	32364	
2451	0	32256	
2452	0	32432	
2453	0	32856	
2454	0	33076	
2455	0	32768	
2456	0	32976	
2457	0	33124	
2458	0	33256	
2459	0	33552	
2460	0	33724	
2461	0	33956	
2462	0	34088	
2463	0	33980	
2464	0	33494	
2465	0	33060	
2466	0	32856	
2467	0	32872	
2468	0	32604	
2469	0	32416	
2470	0	32672	
2471	0	32496	
2472	0	32024	
2473	0	31472	
2474	0	31128	
2475	0	31132	
2476	0	31236	
2477	0	31512	
2478	0	32316	
2479	0	32698	
2480	0	33008	
2481	0	33424	
2482	0	33304	
2483	0	32864	
2484	0	32888	
2485	0	32736	
2486	0	32052	
2487	0	32216	
2488	0	32200	
2489	0	31928	
2490	0	31896	
2491	0	31944	
2492	0	31792	
2493	0	31408	
2494	0	30964	
2495	0	30488	
2496	0	30448	
2497	0	30696	
2498	0	30872	
2499	0	31000	
2500	0	31088	
2501	0	31268	
2502	0	31592	
2503	0	31504	
2504	0	31216	
2505	0	30816	
2506	0	30656	
2507	0	30808	
2508	0	30592	
2509	0	30154	
2510	0	29852	
2511	0	29792	
2512	0	29428	
2513	0	29321	
2514	0	29288	
2515	0	29300	
2516	0	29690	
2517	0	30452	
2518	0	31172	
2519	0	31476	
2520	0	31028	
2521	0	30352	
2522	0	30104	
2523	0	29728	
2524	0	29276	
2525	0	29060	
2526	0	29072	
2527	0	28924	
2528	0	28616	
2529	0	28340	
2530	0	28537	
2531	0	28756	
2532	0	28904	
2533	0	28938	
2534	0	28752	
2535	0	28800	
2536	0	29104	
2537	0	29256	
2538	0	29268	
2539	0	29608	
2540	0	30128	
2541	0	30452	
2542	0	30284	
2543	0	30060	
2544	0	30072	
2545	0	30100	
2546	0	30020	
2547	0	30296	
2548	0	30256	
2549	0	30168	
2550	0	29704	
2551	0	29324	
2552	0	28908	
2553	0	28514	
2554	0	28520	
2555	0	28424	
2556	0	28152	
2557	0	27932	
2558	0	27560	
2559	0	27440	
2560	0	27336	
2561	0	27033	
2562	0	26892	
2563	0	26922	
2564	0	27152	
2565	0	27764	
2566	0	28448	
2567	0	29096	
2568	0	30136	
2569	0	31368	
2570	0	32696	
2571	0	34184	
2572	0	36176	
2573	0	38266	
2574	0	40272	
2575	0	42408	
2576	0	44560	
2577	0	45816	
2578	0	46424	
2579	0	46724	
2580	0	46848	
2581	0	46892	
2582	0	46896	
2583	0	46872	
2584	0	46844	
2585	0	46784	
2586	0	46728	
2587	0	46692	
2588	0	46640	
2589	0	46580	
2590	0	46544	
2591	0	46488	
2592	0	46444	
2593	0	46380	
2594	0	46340	
2595	0	45812	
2596	0	41664	
2597	0	38824	
2598	0	36300	
2599	0	34408	
2600	0	32916	
2601	0	31552	
2602	0	30296	
2603	0	29596	
2604	0	29132	
2605	0	28864	
2606	0	28576	
2607	0	28436	
2608	0	27912	
2609	0	27066	
2610	0	26352	
2611	0	25802	
2612	0	25708	
2613	0	25352	
2614	0	24844	
2615	0	24576	
2616	0	24636	
2617	0	24504	
2618	0	24408	
2619	0	24442	
2620	0	24576	
2621	0	24816	
2622	0	24720	
2623	0	24276	
2624	0	24186	
2625	0	24316	
2626	0	24496	
2627	0	24376	
2628	0	23524	
2629	0	22978	
2630	0	22916	
2631	0	22978	
2632	0	22840	
2633	0	22640	
2634	0	22652	
2635	0	22770	
2636	0	22796	
2637	0	23104	
2638	0	23316	
2639	0	23444	
2640	0	23364	
2641	0	23376	
2642	0	23340	
2643	0	23096	
2644	0	23012	
2645	0	22592	
2646	0	22860	
2647	0	23530	
2648	0	23528	
2649	0	23592	
2650	0	23468	
2651	0	23436	
2652	0	23436	
2653	0	23170	
2654	0	22992	
2655	0	22976	
2656	0	23136	
2657	0	23392	
2658	0	23850	
2659	0	24120	
2660	0	23996	
2661	0	24624	
2662	0	24490	
2663	0	24040	
2664	0	24060	
2665	0	24120	
2666	0	24240	
2667	0	24304	
2668	0	24600	
2669	0	24624	
2670	0	24640	
2671	0	24344	
2672	0	24096	
2673	0	24100	
2674	0	24320	
2675	0	24048	
2676	0	23680	
2677	0	23796	
2678	0	24314	
2679	0	24860	
2680	0	25188	
2681	0	25444	
2682	0	25476	
2683	0	25488	
2684	0	25644	
2685	0	25988	
2686	0	26316	
2687	0	26468	
2688	0	26516	
2689	0	26418	
2690	0	25900	
2691	0	25354	
2692	0	24904	
2693	0	24824	
2694	0	24792	
2695	0	24892	
2696	0	24905	
2697	0	25376	
2698	0	26424	
2699	0	26980	
2700	0	27076	
2701	0	26616	
2702	0	26592	
2703	0	26802	
2704	0	26504	
2705	0	26736	
2706	0	27128	
2707	0	27448	
2708	0	27760	
2709	0	27892	
2710	0	27668	
2711	0	27072	
2712	0	26602	
2713	0	26208	
2714	0	25784	
2715	0	25656	
2716	0	25800	
2717	0	26052	
2718	0	26668	
2719	0	26764	
2720	0	26916	
2721	0	27124	
2722	0	27508	
2723	0	27680	
2724	0	27736	
2725	0	27628	
2726	0	27396	
2727	0	27196	
2728	0	26856	
2729	0	26880	
2730	0	27064	
2731	0	27212	
2732	0	27360	
2733	0	27402	
2734	0	27392	
2735	0	27324	
2736	0	27336	
2737	0	27404	
2738	0	27452	
2739	0	27708	
2740	0	27906	
2741	0	28024	
2742	0	28012	
2743	0	27952	
2744	0	27792	
2745	0	28060	
2746	0	28728	
2747	0	28692	
2748	0	28372	
2749	0	28324	
2750	0	28300	
2751	0	28594	
2752	0	28836	
2753	0	29048	
2754	0	29324	
2755	0	29464	
2756	0	29652	
2757	0	29488	
2758	0	29108	
2759	0	28864	
2760	0	28616	
2761	0	28264	
2762	0	27940	
2763	0	27648	
2764	0	27844	
2765	0	28304	
2766	0	28538	
2767	0	28728	
2768	0	28956	
2769	0	29466	
2770	0	29980	
2771	0	30133	
2772	0	30300	
2773	0	30476	
2774	0	30544	
2775	0	30420	
2776	0	30496	
2777	0	30760	
2778	0	30888	
2779	0	30916	
2780	0	30856	
2781	0	30720	
2782	0	30776	
2783	0	31048	
2784	0	31300	
2785	0	31580	
2786	0	31876	
2787	0	31608	
2788	0	32014	
2789	0	32468	
2790	0	32584	
2791	0	32424	
2792	0	32348	
2793	0	32500	
2794	0	32412	
2795	0	32268	
2796	0	32340	
2797	0	32760	
2798	0	33320	
2799	0	33680	
2800	0	33888	
2801	0	33936	
2802	0	33912	
2803	0	34092	
2804	0	34444	
2805	0	34624	
2806	0	34568	
2807	0	34668	
2808	0	34876	
2809	0	35096	
2810	0	35376	
2811	0	35360	
2812	0	35448	
2813	0	34986	
2814	0	35160	
2815	0	35444	
2816	0	35524	
2817	0	35548	
2818	0	35684	
2819	0	35796	
2820	0	35992	
2821	0	36032	
2822	0	36068	
2823	0	36026	
2824	0	36348	
2825	0	36608	
2826	0	36692	
2827	0	36656	
2828	0	36896	
2829	0	37248	
2830	0	37328	
2831	0	37032	
2832	0	36634	
2833	0	36940	
2834	0	36840	
2835	0	36336	
2836	0	36232	
2837	0	36200	
2838	0	36214	
2839	0	36240	
2840	0	36520	
2841	0	36756	
2842	0	36916	
2843	0	37344	
2844	0	37724	
2845	0	37720	
2846	0	37738	
2847	0	37704	
2848	0	37768	
2849	0	37732	
2850	0	37624	
2851	0	37388	
2852	0	37072	
2853	0	36740	
2854	0	36280	
2855	0	35940	
2856	0	35916	
2857	0	35944	
2858	0	36064	
2859	0	36024	
2860	0	36032	
2861	0	36276	
2862	0	36320	
2863	0	36236	
2864	0	36088	
2865	0	35900	
2866	0	35504	
2867	0	35340	
2868	0	35324	
2869	0	35040	
2870	0	34862	
2871	0	34956	
2872	0	34936	
2873	0	34408	
2874	0	33960	
2875	0	33488	
2876	0	33280	
2877	0	33212	
2878	0	33128	
2879	0	33016	
2880	0	32996	
2881	0	32516	
2882	0	31812	
2883	0	31128	
2884	0	30480	
2885	0	30386	
2886	0	30268	
2887	0	30232	
2888	0	30256	
2889	0	30348	
2890	0	30228	
2891	0	30016	
2892	0	29708	
2893	0	29648	
2894	0	29336	
2895	0	28812	
2896	0	28536	
2897	0	28328	
2898	0	28356	
2899	0	28161	
2900	0	28049	
2901	0	28052	
2902	0	28252	
2903	0	28412	
2904	0	28560	
2905	0	28412	
2906	0	28064	
2907	0	27916	
2908	0	27816	
2909	0	27522	
2910	0	27228	
2911	0	26836	
2912	0	26722	
2913	0	26648	
2914	0	26676	
2915	0	26796	
2916	0	26744	
2917	0	26832	
2918	0	27176	
2919	0	27440	
2920	0	27572	
2921	0	27696	
2922	0	27468	
2923	0	27252	
2924	0	27124	
2925	0	27100	
2926	0	27054	
2927	0	26712	
2928	0	26465	
2929	0	26068	
2930	0	26152	
2931	0	26364	
2932	0	26464	
2933	0	27228	
2934	0	27196	
2935	0	27108	
2936	0	26964	
2937	0	26784	
2938	0	26788	
2939	0	26660	
2940	0	26688	
2941	0	26728	
2942	0	26844	
2943	0	26724	
2944	0	26816	
2945	0	26864	
2946	0	26752	
2947	0	26804	
2948	0	26892	
2949	0	26832	
2950	0	26864	
2951	0	27169	
2952	0	27504	
2953	0	27504	
2954	0	27552	
2955	0	27870	
2956	0	28180	
2957	0	28356	
2958	0	28424	
2959	0	28236	
2960	0	27956	
2961	0	28036	
2962	0	28124	
2963	0	27848	
2964	0	27388	
2965	0	26888	
2966	0	26968	
2967	0	27256	
2968	0	27392	
2969	0	27552	
2970	0	28024	
2971	0	28318	
2972	0	28556	
2973	0	28440	
2974	0	28720	
2975	0	29044	
2976	0	29422	
2977	0	29512	
2978	0	29466	
2979	0	29400	
2980	0	29364	
2981	0	29304	
2982	0	29080	
2983	0	28926	
2984	0	29066	
2985	0	29352	
2986	0	29344	
2987	0	29466	
2988	0	29400	
2989	0	29624	
2990	0	29528	
2991	0	29120	
2992	0	29228	
2993	0	29612	
2994	0	29408	
2995	0	29244	
2996	0	29312	
2997	0	29516	
2998	0	29524	
2999	0	29084	
3000	0	29362	
3001	0	29521	
3002	0	29504	
3003	0	29432	
3004	0	29325	
3005	0	29268	
3006	0	29472	
3007	0	29656	
3008	0	29540	
3009	0	29328	
3010	0	28992	
3011	0	28756	
3012	0	28628	
3013	0	28690	
3014	0	28692	
3015	0	28712	
3016	0	28796	
3017	0	28860	
3018	0	29233	
3019	0	29480	
3020	0	29552	
3021	0	29646	
3022	0	29972	
3023	0	30736	
3024	0	30048	
3025	0	29264	
3026	0	29042	
3027	0	28976	
3028	0	29028	
3029	0	29188	
3030	0	29232	
3031	0	29156	
3032	0	28964	
3033	0	28940	
3034	0	29080	
3035	0	29260	
3036	0	29144	
3037	0	29144	
3038	0	29802	
3039	0	30212	
3040	0	30528	
3041	0	30868	
3042	0	30958	
3043	0	30864	
3044	0	30860	
3045	0	30716	
3046	0	30572	
3047	0	30424	
3048	0	30064	
3049	0	29548	
3050	0	29334	
3051	0	29306	
3052	0	29332	
3053	0	29200	
3054	0	28884	
3055	0	29068	
3056	0	29128	
3057	0	29392	
3058	0	29444	
3059	0	29416	
3060	0	29224	
3061	0	29328	
3062	0	29392	
3063	0	29676	
3064	0	29676	
3065	0	29392	
3066	0	29016	
3067	0	28784	
3068	0	28856	
3069	0	28832	
3070	0	28832	
3071	0	29040	
3072	0	28848	
3073	0	28700	
3074	0	28832	
3075	0	28900	
3076	0	28944	
3077	0	28920	
3078	0	28800	
3079	0	28844	
3080	0	28912	
3081	0	29378	
3082	0	29720	
3083	0	30032	
3084	0	30512	
3085	0	30544	
3086	0	30448	
3087	0	30084	
3088	0	29600	
3089	0	29509	
3090	0	29112	
3091	0	28984	
3092	0	29240	
3093	0	29840	
3094	0	29698	
3095	0	29476	
3096	0	29208	
3097	0	29232	
3098	0	29456	
3099	0	29436	
3100	0	29328	
3101	0	29120	
3102	0	29112	
3103	0	29277	
3104	0	29328	
3105	0	29345	
3106	0	29688	
3107	0	29872	
3108	0	30260	
3109	0	30328	
3110	0	30132	
3111	0	30236	
3112	0	29664	
3113	0	29052	
3114	0	28724	
3115	0	28572	
3116	0	28620	
3117	0	28608	
3118	0	28772	
3119	0	28864	
3120	0	28928	
3121	0	29068	
3122	0	29456	
3123	0	29708	
3124	0	29464	
3125	0	29436	
3126	0	29512	
3127	0	29576	
3128	0	29620	
3129	0	29468	
3130	0	29408	
3131	0	29276	
3132	0	29326	
3133	0	29460	
3134	0	29324	
3135	0	29186	
3136	0	28912	
3137	0	29040	
3138	0	28940	
3139	0	28896	
3140	0	29308	
3141	0	29604	
3142	0	29704	
3143	0	29636	
3144	0	29558	
3145	0	29476	
3146	0	28984	
3147	0	28544	
3148	0	28156	
3149	0	27866	
3150	0	27992	
3151	0	28156	
3152	0	28450	
3153	0	28800	
3154	0	28844	
3155	0	28890	
3156	0	28932	
3157	0	29384	
3158	0	29780	
3159	0	30012	
3160	0	29816	
3161	0	29312	
3162	0	29084	
3163	0	28764	
3164	0	28376	
3165	0	28458	
3166	0	28972	
3167	0	29280	
3168	0	28712	
3169	0	28612	
3170	0	28744	
3171	0	28748	
3172	0	28593	
3173	0	28840	
3174	0	29480	
3175	0	29256	
3176	0	29204	
3177	0	29224	
3178	0	29380	
3179	0	29476	
3180	0	29672	
3181	0	29472	
3182	0	29456	
3183	0	29412	
3184	0	29440	
3185	0	29636	
3186	0	29616	
3187	0	29362	
3188	0	29332	
3189	0	29164	
3190	0	29252	
3191	0	29824	
3192	0	30136	
3193	0	30404	
3194	0	30600	
3195	0	30232	
3196	0	29808	
3197	0	29280	
3198	0	29252	
3199	0	29204	
3200	0	29132	
3201	0	29376	
3202	0	29556	
3203	0	29668	
3204	0	29880	
3205	0	30104	
3206	0	30060	
3207	0	29780	
3208	0	29520	
3209	0	29288	
3210	0	29100	
3211	0	29480	
3212	0	29804	
3213	0	29712	
3214	0	29344	
3215	0	28720	
3216	0	27928	
3217	0	27380	
3218	0	27188	
3219	0	27208	
3220	0	27220	
3221	0	27146	
3222	0	27424	
3223	0	27504	
3224	0	27998	
3225	0	28604	
3226	0	28712	
3227	0	28546	
3228	0	28620	
3229	0	28480	
3230	0	28384	
3231	0	28328	
3232	0	28466	
3233	0	28444	
3234	0	28112	
3235	0	27440	
3236	0	27248	
3237	0	27352	
3238	0	27484	
3239	0	27520	
3240	0	27672	
3241	0	27872	
3242	0	28144	
3243	0	28426	
3244	0	28608	
3245	0	28652	
3246	0	28780	
3247	0	28756	
3248	0	28716	
3249	0	28720	
3250	0	28600	
3251	0	28452	
3252	0	28104	
3253	0	27768	
3254	0	27244	
3255	0	27128	
3256	0	27112	
3257	0	27216	
3258	0	27360	
3259	0	27770	
3260	0	27976	
3261	0	28336	
3262	0	28596	
3263	0	28538	
3264	0	28908	
3265	0	28904	
3266	0	28808	
3267	0	29404	
3268	0	28824	
3269	0	28256	
3270	0	27944	
3271	0	27632	
3272	0	27268	
3273	0	27464	
3274	0	27608	
3275	0	27628	
3276	0	27448	
3277	0	27184	
3278	0	27080	
3279	0	27112	
3280	0	26976	
3281	0	26968	
3282	0	27000	
3283	0	27045	
3284	0	27132	
3285	0	27216	
3286	0	27072	
3287	0	26816	
3288	0	26644	
3289	0	26834	
3290	0	27338	
3291	0	28040	
3292	0	28784	
3293	0	29860	
3294	0	31450	
3295	0	32976	
3296	0	34608	
3297	0	36356	
3298	0	37920	
3299	0	39360	
3300	0	40872	
3301	0	42872	
3302	0	45652	
3303	0	48760	
3304	0	51488	
3305	0	53080	
3306	0	53888	
3307	0	54288	
3308	0	54464	
3309	0	54524	
3310	0	54496	
3311	0	54464	
3312	0	54416	
3313	0	54344	
3314	0	54268	
3315	0	54188	
3316	0	54112	
3317	0	54048	
3318	0	53968	
3319	0	53888	
3320	0	53804	
3321	0	49344	
3322	0	45832	
3323	0	43132	
3324	0	40536	
3325	0	38308	
3326	0	36296	
3327	0	34528	
3328	0	33008	
3329	0	31860	
3330	0	30888	
3331	0	30260	
3332	0	29772	
3333	0	29524	
3334	0	29404	
3335	0	29224	
3336	0	29284	
3337	0	29320	
3338	0	29016	
3339	0	28760	
3340	0	28882	
3341	0	29188	
3342	0	29420	
3343	0	29432	
3344	0	29548	
3345	0	29428	
3346	0	29032	
3347	0	28540	
3348	0	27872	
3349	0	27396	
3350	0	27008	
3351	0	26456	
3352	0	25804	
3353	0	25388	
3354	0	25272	
3355	0	25242	
3356	0	25104	
3357	0	25240	
3358	0	25464	
3359	0	25434	
3360	0	25364	
3361	0	25844	
3362	0	26308	
3363	0	26544	
3364	0	26576	
3365	0	26824	
3366	0	27008	
3367	0	26816	
3368	0	26580	
3369	0	26392	
3370	0	26196	
3371	0	25848	
3372	0	25800	
3373	0	25772	
3374	0	25648	
3375	0	25584	
3376	0	25608	
3377	0	25880	
3378	0	26072	
3379	0	25972	
3380	0	26336	
3381	0	27060	
3382	0	27440	
3383	0	27740	
3384	0	27984	
3385	0	27992	
3386	0	28014	
3387	0	27544	
3388	0	27012	
3389	0	26704	
3390	0	26624	
3391	0	26504	
3392	0	26360	
3393	0	26260	
3394	0	26188	
3395	0	26440	
3396	0	26712	
3397	0	26784	
3398	0	26696	
3399	0	26892	
3400	0	27324	
3401	0	27504	
3402	0	27432	
3403	0	27960	
3404	0	28330	
3405	0	28548	
3406	0	28460	
3407	0	28208	
3408	0	27858	
3409	0	27616	
3410	0	27516	
3411	0	27800	
3412	0	27880	
3413	0	27968	
3414	0	27900	
3415	0	27688	
3416	0	27604	
3417	0	27492	
3418	0	27252	
3419	0	27376	
3420	0	27834	
3421	0	28280	
3422	0	28444	
3423	0	28764	
3424	0	29036	
3425	0	29000	
3426	0	28744	
3427	0	28096	
3428	0	28096	
3429	0	27996	
3430	0	28008	
3431	0	27914	
3432	0	27972	
3433	0	28092	
3434	0	28440	
3435	0	28832	
3436	0	28672	
3437	0	28754	
3438	0	28844	
3439	0	28970	
3440	0	29034	
3441	0	29380	
3442	0	29732	
3443	0	30040	
3444	0	30298	
3445	0	30316	
3446	0	30210	
3447	0	30000	
3448	0	29588	
3449	0	29108	
3450	0	28736	
3451	0	28788	
3452	0	29044	
3453	0	29276	
3454	0	29440	
3455	0	29520	
3456	0	29722	
3457	0	29524	
3458	0	29488	
3459	0	29548	
3460	0	29516	
3461	0	29744	
3462	0	29812	
3463	0	29752	
3464	0	29984	
3465	0	30272	
3466	0	30200	
3467	0	30080	
3468	0	29820	
3469	0	29772	
3470	0	29684	
3471	0	29825	
3472	0	30096	
3473	0	30208	
3474	0	30220	
3475	0	30116	
3476	0	30060	
3477	0	30320	
3478	0	30412	
3479	0	30656	
3480	0	30768	
3481	0	30688	
3482	0	30748	
3483	0	30904	
3484	0	31640	
3485	0	32208	
3486	0	32376	
3487	0	32356	
3488	0	32380	
3489	0	32300	
3490	0	32120	
3491	0	31992	
3492	0	32000	
3493	0	31992	
3494	0	32160	
3495	0	32256	
3496	0	32138	
3497	0	32396	
3498	0	32820	
3499	0	33196	
3500	0	33396	
3501	0	33584	
3502	0	33912	
3503	0	34240	
3504	0	34392	
3505	0	34292	
3506	0	33780	
3507	0	33416	
3508	0	33142	
3509	0	32968	
3510	0	33420	
3511	0	33788	
3512	0	33944	
3513	0	34000	
3514	0	34100	
3515	0	34132	
3516	0	34024	
3517	0	34080	
3518	0	34176	
3519	0	34232	
3520	0	34324	
3521	0	34608	
3522	0	34968	
3523	0	35172	
3524	0	35416	
3525	0	35600	
3526	0	35812	
3527	0	35908	
3528	0	35744	
3529	0	35552	
3530	0	35580	
3531	0	35396	
3532	0	35268	
3533	0	35378	
3534	0	35388	
3535	0	35324	
3536	0	35584	
3537	0	35786	
3538	0	35972	
3539	0	36412	
3540	0	36936	
3541	0	37432	
3542	0	37992	
3543	0	38404	
3544	0	38508	
3545	0	38648	
3546	0	38720	
3547	0	38324	
3548	0	37610	
3549	0	37224	
3550	0	36948	
3551	0	36672	
3552	0	36372	
3553	0	36432	
3554	0	36856	
3555	0	37100	
3556	0	37144	
3557	0	37300	
3558	0	37396	
3559	0	37696	
3560	0	38012	
3561	0	38184	
3562	0	38468	
3563	0	38908	
3564	0	39160	
3565	0	39208	
3566	0	39104	
3567	0	38972	
3568	0	38760	
3569	0	38364	
3570	0	37916	
3571	0	37668	
3572	0	37512	
3573	0	37484	
3574	0	37920	
3575	0	38136	
3576	0	38024	
3577	0	37954	
3578	0	37772	
3579	0	37776	
3580	0	37760	
3581	0	37492	
3582	0	37288	
3583	0	37256	
3584	0	37292	
3585	0	37396	
3586	0	37136	
3587	0	36864	
3588	0	36468	
3589	0	36032	
3590	0	35712	
3591	0	35522	
3592	0	35304	
3593	0	35320	
3594	0	35416	
3595	0	35692	
3596	0	35512	
3597	0	35108	
3598	0	34784	
3599	0	34536	
3600	0	34504	
3601	0	34536	
3602	0	34560	
3603	0	34530	
3604	0	34692	
3605	0	34688	
3606	0	34428	
3607	0	33834	
3608	0	33136	
3609	0	32416	
3610	0	32140	
3611	0	31844	
3612	0	31468	
3613	0	31252	
3614	0	30992	
3615	0	30714	
3616	0	30504	
3617	0	30328	
3618	0	30312	
3619	0	30260	
3620	0	29904	
3621	0	29400	
3622	0	28832	
3623	0	28776	
3624	0	28604	
3625	0	28452	
3626	0	28092	
3627	0	27788	
3628	0	27916	
3629	0	28232	
3630	0	28228	
3631	0	28248	
3632	0	28364	
3633	0	28532	
3634	0	28576	
3635	0	28620	
3636	0	28604	
3637	0	28632	
3638	0	28792	
3639	0	28842	
3640	0	29036	
3641	0	29300	
3642	0	29604	
3643	0	30036	
3644	0	30396	
3645	0	30514	
3646	0	30680	
3647	0	30772	
3648	0	30592	
3649	0	30348	
3650	0	30136	
3651	0	29768	
3652	0	29404	
3653	0	29480	
3654	0	29812	
3655	0	30068	
3656	0	29992	
3657	0	29896	
3658	0	30204	
3659	0	30400	
3660	0	30688	
3661	0	30964	
3662	0	31044	
3663	0	30952	
3664	0	30958	
3665	0	30656	
3666	0	30172	
3667	0	29652	
3668	0	29312	
3669	0	29272	
3670	0	29280	
3671	0	29260	
3672	0	29304	
3673	0	29400	
3674	0	29864	
3675	0	30220	
3676	0	30412	
3677	0	30728	
3678	0	30912	
3679	0	31256	
3680	0	31436	
3681	0	31456	
3682	0	31636	
3683	0	31868	
3684	0	31980	
3685	0	31868	
3686	0	31708	
3687	0	31280	
3688	0	30672	
3689	0	30244	
3690	0	29784	
3691	0	29440	
3692	0	29524	
3693	0	29808	
3694	0	30124	
3695	0	30290	
3696	0	30348	
3697	0	30396	
3698	0	30426	
3699	0	30568	
3700	0	30792	
3701	0	30512	
3702	0	30592	
3703	0	30844	
3704	0	30994	
3705	0	31264	
3706	0	31876	
3707	0	32728	
3708	0	33560	
3709	0	34596	
3710	0	35648	
3711	0	36356	
3712	0	36836	
3713	0	37368	
3714	0	38072	
3715	0	38996	
3716	0	39140	
3717	0	38480	
3718	0	37392	
3719	0	36088	
3720	0	34880	
3721	0	34000	
3722	0	33360	
3723	0	33016	
3724	0	32536	
3725	0	31956	
3726	0	31264	
3727	0	30148	
3728	0	28248	
3729	0	26952	
3730	0	25520	
3731	0	23928	
3732	0	22016	
3733	0	19676	
3734	0	17188	
3735	0	14780	
3736	0	11921	
3737	0	8793	
3738	0	5949	
3739	0	3836	
3740	0	2485	
3741	0	2343	
3742	0	2857	
3743	0	3242	
3744	0	3656	
3745	0	4040	
3746	0	4406	
3747	0	5272	
3748	0	6416	
3749	0	8422	
3750	0	9868	
3751	0	10404	
3752	0	10520	
3753	0	9704	
3754	0	9188	
3755	0	8272	
3756	0	8082	
3757	0	9076	
3758	0	9756	
3759	0	10318	
3760	0	10720	
3761	0	10926	
3762	0	11112	
3763	0	11388	
3764	0	11576	
3765	0	11696	
3766	0	12080	
3767	0	13328	
3768	0	15256	
3769	0	16469	
3770	0	16396	
3771	0	15292	
3772	0	13586	
3773	0	11116	
3774	0	9984	
3775	0	9929	
3776	0	9626	
3777	0	10849	
3778	0	12145	
3779	0	12714	
3780	0	12458	
3781	0	12092	
3782	0	11688	
3783	0	11534	
3784	0	12258	
3785	0	13758	
3786	0	15228	
3787	0	16137	
3788	0	16856	
3789	0	17456	
3790	0	16758	
3791	0	15464	
3792	0	16820	
3793	0	18892	
3794	0	20098	
3795	0	21052	
3796	0	21816	
3797	0	22624	
3798	0	23420	
3799	0	24052	
3800	0	24252	
3801	0	24480	
3802	0	24512	
3803	0	24316	
3804	0	24380	
3805	0	24488	
3806	0	24778	
3807	0	25234	
3808	0	25660	
3809	0	26060	
3810	0	26404	
3811	0	26744	
3812	0	26752	
3813	0	26860	
3814	0	26916	
3815	0	26876	
3816	0	26884	
3817	0	26936	
3818	0	27092	
3819	0	27214	
3820	0	27600	
3821	0	27912	
3822	0	28052	
3823	0	28056	
3824	0	27940	
3825	0	27684	
3826	0	27416	
3827	0	27156	
3828	0	26936	
3829	0	26876	
3830	0	27140	
3831	0	27504	
3832	0	27692	
3833	0	27600	
3834	0	27376	
3835	0	27246	
3836	0	27236	
3837	0	27418	
3838	0	27668	
3839	0	27896	
3840	0	28034	
3841	0	27952	
3842	0	27900	
3843	0	27828	
3844	0	27880	
3845	0	28200	
3846	0	28624	
3847	0	29128	
3848	0	30092	
3849	0	30920	
3850	0	31498	
3851	0	31592	
3852	0	30982	
3853	0	29944	
3854	0	29200	
3855	0	28716	
3856	0	28544	
3857	0	28288	
3858	0	27808	
3859	0	27452	
3860	0	27352	
3861	0	27232	
3862	0	26896	
3863	0	26768	
3864	0	26640	
3865	0	26616	
3866	0	26884	
3867	0	27144	
3868	0	27268	
3869	0	27637	
3870	0	28028	
3871	0	28412	
3872	0	28612	
3873	0	28656	
3874	0	28542	
3875	0	28560	
3876	0	28724	
3877	0	29060	
3878	0	29472	
3879	0	29728	
3880	0	29976	
3881	0	29988	
3882	0	29696	
3883	0	29212	
3884	0	28736	
3885	0	28432	
3886	0	28428	
3887	0	28632	
3888	0	28832	
3889	0	28944	
3890	0	29000	
3891	0	29008	
3892	0	28908	
3893	0	28712	
3894	0	28488	
3895	0	28240	
3896	0	28416	
3897	0	28616	
3898	0	28864	
3899	0	28976	
3900	0	28924	
3901	0	28728	
3902	0	28488	
3903	0	28256	
3904	0	27888	
3905	0	27764	
3906	0	27896	
3907	0	28180	
3908	0	28538	
3909	0	28748	
3910	0	28780	
3911	0	28800	
3912	0	28624	
3913	0	28513	
3914	0	28336	
3915	0	28152	
3916	0	28156	
3917	0	28268	
3918	0	28360	
3919	0	28344	
3920	0	28228	
3921	0	28032	
3922	0	27740	
3923	0	27428	
3924	0	27104	
3925	0	26910	
3926	0	26988	
3927	0	27232	
3928	0	27492	
3929	0	27676	
3930	0	27788	
3931	0	27824	
3932	0	27692	
3933	0	27544	
3934	0	27432	
3935	0	27440	
3936	0	27660	
3937	0	27984	
3938	0	28232	
3939	0	28460	
3940	0	28632	
3941	0	28724	
3942	0	28770	
3943	0	28756	
3944	0	28570	
3945	0	28246	
3946	0	28160	
3947	0	28176	
3948	0	28176	
3949	0	28048	
3950	0	27712	
3951	0	27326	
3952	0	26960	
3953	0	26776	
3954	0	26660	
3955	0	26584	
3956	0	26800	
3957	0	27200	
3958	0	27732	
3959	0	28276	
3960	0	28852	
3961	0	29264	
3962	0	29528	
3963	0	29584	
3964	0	29444	
3965	0	29180	
3966	0	28864	
3967	0	28728	
3968	0	28636	
3969	0	28364	
3970	0	28092	
3971	0	27872	
3972	0	27680	
3973	0	27540	
3974	0	27336	
3975	0	27384	
3976	0	27634	
3977	0	27798	
3978	0	27800	
3979	0	27852	
3980	0	28036	
3981	0	28112	
3982	0	28196	
3983	0	28288	
3984	0	28338	
3985	0	28420	
3986	0	28468	
3987	0	28392	
3988	0	28164	
3989	0	27856	
3990	0	27480	
3991	0	27144	
3992	0	26932	
3993	0	26752	
3994	0	26648	
3995	0	26656	
3996	0	26712	
3997	0	26632	
3998	0	26560	
3999	0	26740	
4000	0	27208	
4001	0	27872	
4002	0	28616	
4003	0	29456	
4004	0	30528	
4005	0	31776	
4006	0	33040	
4007	0	34280	
4008	0	35480	
4009	0	36648	
4010	0	37808	
4011	0	38912	
4012	0	40040	
4013	0	41524	
4014	0	43528	
4015	0	45964	
4016	0	48552	
4017	0	51080	
4018	0	53372	
4019	0	55440	
4020	0	57200	
4021	0	58576	
4022	0	59696	
4023	0	60776	
4024	0	61388	
4025	0	61648	
4026	0	61748	
4027	0	61756	
4028	0	61696	
4029	0	61164	
4030	0	56772	
4031	0	52056	
4032	0	47528	
4033	0	43504	
4034	0	40160	
4035	0	37408	
4036	0	35036	
4037	0	32912	
4038	0	31016	
4039	0	29464	
4040	0	28456	
4041	0	27850	
4042	0	27584	
4043	0	27512	
4044	0	27556	
4045	0	27532	
4046	0	27204	
4047	0	26564	
4048	0	25764	
4049	0	24852	
4050	0	23876	
4051	0	22976	
4052	0	22128	
4053	0	21385	
4054	0	20840	
4055	0	20440	
4056	0	19982	
4057	0	19664	
4058	0	19532	
4059	0	19480	
4060	0	19586	
4061	0	19796	
4062	0	20092	
4063	0	20480	
4064	0	20856	
4065	0	21124	
4066	0	21130	
4067	0	20838	
4068	0	20498	
4069	0	20116	
4070	0	19772	
4071	0	19364	
4072	0	19004	
4073	0	18852	
4074	0	18889	
4075	0	19032	
4076	0	19216	
4077	0	19308	
4078	0	19448	
4079	0	19700	
4080	0	20098	
4081	0	20740	
4082	0	21496	
4083	0	22216	
4084	0	22924	
4085	0	23354	
4086	0	23252	
4087	0	22692	
4088	0	22040	
4089	0	21380	
4090	0	20776	
4091	0	20256	
4092	0	20004	
4093	0	19772	
4094	0	19804	
4095	0	20112	
4096	0	20274	
4097	0	20320	
4098	0	20346	
4099	0	20500	
4100	0	20968	
4101	0	21630	
4102	0	22348	
4103	0	23134	
4104	0	23972	
4105	0	24608	
4106	0	24712	
4107	0	24316	
4108	0	23670	
4109	0	23088	
4110	0	22632	
4111	0	22302	
4112	0	22258	
4113	0	22420	
4114	0	22748	
4115	0	23080	
4116	0	23088	
4117	0	22928	
4118	0	22833	
4119	0	22852	
4120	0	23204	
4121	0	23788	
4122	0	24508	
4123	0	25288	
4124	0	26284	
4125	0	27044	
4126	0	27152	
4127	0	26736	
4128	0	26000	
4129	0	25264	
4130	0	24548	
4131	0	23934	
4132	0	23442	
4133	0	23252	
4134	0	23336	
4135	0	23310	
4136	0	22940	
4137	0	22536	
4138	0	22220	
4139	0	22084	
4140	0	22372	
4141	0	23036	
4142	0	23832	
4143	0	24800	
4144	0	25868	
4145	0	26492	
4146	0	26504	
4147	0	26045	
4148	0	25484	
4149	0	24904	
4150	0	23016	
4151	0	21592	
4152	0	20904	
4153	0	20792	
4154	0	21232	
4155	0	21876	
4156	0	22200	
4157	0	22272	
4158	0	22392	
4159	0	22594	
4160	0	22924	
4161	0	23518	
4162	0	24284	
4163	0	25186	
4164	0	26104	
4165	0	26644	
4166	0	26528	
4167	0	26032	
4168	0	25270	
4169	0	24456	
4170	0	23676	
4171	0	23070	
4172	0	22796	
4173	0	22888	
4174	0	23210	
4175	0	23662	
4176	0	23812	
4177	0	23756	
4178	0	23800	
4179	0	24052	
4180	0	24504	
4181	0	25256	
4182	0	26080	
4183	0	26990	
4184	0	27792	
4185	0	28292	
4186	0	28184	
4187	0	27508	
4188	0	26592	
4189	0	25780	
4190	0	25048	
4191	0	24432	
4192	0	24046	
4193	0	23916	
4194	0	23976	
4195	0	24112	
4196	0	24236	
4197	0	24156	
4198	0	24140	
4199	0	24180	
4200	0	24444	
4201	0	24952	
4202	0	25616	
4203	0	26392	
4204	0	27290	
4205	0	28000	
4206	0	28044	
4207	0	27528	
4208	0	26888	
4209	0	26400	
4210	0	25934	
4211	0	25536	
4212	0	25296	
4213	0	25228	
4214	0	25432	
4215	0	25808	
4216	0	25988	
4217	0	25944	
4218	0	25936	
4219	0	26188	
4220	0	26540	
4221	0	27078	
4222	0	27744	
4223	0	28560	
4224	0	29332	
4225	0	29808	
4226	0	29872	
4227	0	29618	
4228	0	29146	
4229	0	28728	
4230	0	28352	
4231	0	27964	
4232	0	27768	
4233	0	27876	
4234	0	28240	
4235	0	28650	
4236	0	28784	
4237	0	28764	
4238	0	28816	
4239	0	29020	
4240	0	29348	
4241	0	29764	
4242	0	30224	
4243	0	30712	
4244	0	31252	
4245	0	31644	
4246	0	31656	
4247	0	31402	
4248	0	31050	
4249	0	30704	
4250	0	30378	
4251	0	30156	
4252	0	30136	
4253	0	30346	
4254	0	30720	
4255	0	31128	
4256	0	31328	
4257	0	31396	
4258	0	31450	
4259	0	31596	
4260	0	31860	
4261	0	32244	
4262	0	32688	
4263	0	33196	
4264	0	33700	
4265	0	33920	
4266	0	33748	
4267	0	33296	
4268	0	32788	
4269	0	32208	
4270	0	31692	
4271	0	31328	
4272	0	31188	
4273	0	31324	
4274	0	31536	
4275	0	31704	
4276	0	31692	
4277	0	31576	
4278	0	31496	
4279	0	31536	
4280	0	31688	
4281	0	32120	
4282	0	32664	
4283	0	33216	
4284	0	33808	
4285	0	34218	
4286	0	34216	
4287	0	33900	
4288	0	33552	
4289	0	33248	
4290	0	32964	
4291	0	32656	
4292	0	32396	
4293	0	31964	
4294	0	31676	
4295	0	31572	
4296	0	31428	
4297	0	31224	
4298	0	31184	
4299	0	31288	
4300	0	31504	
4301	0	31736	
4302	0	31984	
4303	0	32232	
4304	0	32400	
4305	0	32424	
4306	0	32160	
4307	0	31668	
4308	0	31072	
4309	0	30484	
4310	0	29862	
4311	0	29392	
4312	0	29032	
4313	0	28796	
4314	0	28658	
4315	0	28612	
4316	0	28556	
4317	0	28394	
4318	0	28268	
4319	0	28180	
4320	0	28120	
4321	0	28108	
4322	0	28156	
4323	0	28236	
4324	0	28250	
4325	0	28184	
4326	0	28024	
4327	0	27772	
4328	0	27605	
4329	0	27456	
4330	0	27280	
4331	0	27224	
4332	0	27220	
4333	0	27160	
4334	0	27120	
4335	0	27088	
4336	0	26970	
4337	0	26824	
4338	0	26734	
4339	0	26640	
4340	0	26510	
4341	0	26360	
4342	0	26276	
4343	0	26208	
4344	0	26160	
4345	0	26212	
4346	0	26180	
4347	0	26070	
4348	0	25973	
4349	0	25848	
4350	0	25708	
4351	0	25544	
4352	0	25510	
4353	0	25528	
4354	0	25592	
4355	0	25576	
4356	0	25600	
4357	0	25740	
4358	0	25904	
4359	0	26152	
4360	0	26354	
4361	0	26420	
4362	0	26532	
4363	0	26616	
4364	0	26520	
4365	0	26434	
4366	0	26328	
4367	0	26284	
4368	0	26326	
4369	0	26364	
4370	0	26332	
4371	0	26376	
4372	0	26448	
4373	0	26474	
4374	0	26480	
4375	0	26628	
4376	0	26754	
4377	0	26744	
4378	0	26644	
4379	0	26448	
4380	0	26296	
4381	0	26284	
4382	0	26416	
4383	0	26586	
4384	0	26714	
4385	0	26764	
4386	0	26736	
4387	0	26688	
4388	0	26641	
4389	0	26592	
4390	0	26576	
4391	0	26536	
4392	0	26564	
4393	0	26668	
4394	0	26722	
4395	0	26796	
4396	0	26953	
4397	0	27040	
4398	0	27228	
4399	0	27496	
4400	0	27760	
4401	0	27816	
4402	0	27896	
4403	0	27864	
4404	0	27800	
4405	0	27812	
4406	0	27824	
4407	0	27776	
4408	0	27720	
4409	0	27576	
4410	0	27424	
4411	0	27360	
4412	0	27312	
4413	0	27330	
4414	0	27440	
4415	0	27592	
4416	0	27856	
4417	0	28072	
4418	0	28176	
4419	0	28416	
4420	0	28772	
4421	0	29074	
4422	0	29252	
4423	0	29356	
4424	0	29352	
4425	0	29228	
4426	0	29104	
4427	0	28956	
4428	0	28860	
4429	0	28776	
4430	0	28676	
4431	0	28560	
4432	0	28476	
4433	0	28520	
4434	0	28592	
4435	0	28680	
4436	0	28760	
4437	0	28836	
4438	0	28956	
4439	0	29128	
4440	0	29278	
4441	0	29344	
4442	0	29352	
4443	0	29332	
4444	0	29260	
4445	0	29108	
4446	0	29046	
4447	0	28976	
4448	0	28980	
4449	0	29164	
4450	0	29340	
4451	0	29402	
4452	0	29460	
4453	0	29540	
4454	0	29592	
4455	0	29652	
4456	0	29776	
4457	0	29860	
4458	0	29992	
4459	0	30264	
4460	0	30556	
4461	0	30744	
4462	0	30664	
4463	0	30492	
4464	0	30328	
4465	0	30068	
4466	0	29864	
4467	0	29732	
4468	0	29672	
4469	0	29618	
4470	0	29532	
4471	0	29476	
4472	0	29488	
4473	0	29464	
4474	0	29356	
4475	0	29400	
4476	0	29594	
4477	0	29870	
4478	0	30120	
4479	0	30280	
4480	0	30328	
4481	0	30332	
4482	0	30272	
4483	0	30152	
4484	0	29952	
4485	0	29794	
4486	0	29796	
4487	0	29860	
4488	0	29940	
4489	0	30040	
4490	0	30228	
4491	0	30296	
4492	0	30240	
4493	0	30192	
4494	0	30168	
4495	0	30208	
4496	0	30432	
4497	0	30640	
4498	0	30818	
4499	0	31044	
4500	0	31252	
4501	0	31328	
4502	0	31256	
4503	0	31082	
4504	0	30924	
4505	0	30848	
4506	0	30952	
4507	0	31256	
4508	0	31624	
4509	0	31832	
4510	0	31820	
4511	0	31540	
4512	0	31192	
4513	0	31024	
4514	0	30932	
4515	0	30952	
4516	0	31120	
4517	0	31484	
4518	0	31728	
4519	0	31792	
4520	0	31688	
4521	0	31504	
4522	0	31220	
4523	0	30944	
4524	0	30616	
4525	0	30336	
4526	0	30190	
4527	0	30208	
4528	0	30376	
4529	0	30496	
4530	0	30436	
4531	0	30536	
4532	0	30516	
4533	0	30380	
4534	0	30308	
4535	0	30252	
4536	0	30424	
4537	0	30792	
4538	0	31012	
4539	0	31034	
4540	0	31152	
4541	0	31362	
4542	0	31578	
4543	0	31564	
4544	0	31332	
4545	0	31184	
4546	0	31248	
4547	0	31292	
4548	0	31244	
4549	0	31216	
4550	0	31020	
4551	0	30772	
4552	0	30944	
4553	0	31284	
4554	0	31436	
4555	0	31408	
4556	0	31689	
4557	0	31920	
4558	0	32186	
4559	0	32812	
4560	0	33080	
4561	0	33080	
4562	0	32904	
4563	0	32496	
4564	0	31816	
4565	0	31000	
4566	0	30400	
4567	0	30352	
4568	0	30504	
4569	0	30812	
4570	0	31108	
4571	0	31280	
4572	0	31312	
4573	0	31368	
4574	0	31488	
4575	0	31552	
4576	0	31684	
4577	0	31938	
4578	0	32240	
4579	0	32396	
4580	0	32280	
4581	0	32324	
4582	0	32300	
4583	0	32032	
4584	0	31768	
4585	0	31662	
4586	0	31470	
4587	0	31248	
4588	0	31084	
4589	0	31104	
4590	0	31220	
4591	0	31468	
4592	0	31420	
4593	0	31348	
4594	0	31316	
4595	0	31368	
4596	0	31320	
4597	0	31236	
4598	0	31424	
4599	0	31804	
4600	0	31802	
4601	0	31632	
4602	0	31396	
4603	0	31064	
4604	0	30676	
4605	0	30232	
4606	0	29864	
4607	0	29848	
4608	0	30284	
4609	0	31008	
4610	0	31816	
4611	0	32444	
4612	0	32736	
4613	0	32660	
4614	0	32736	
4615	0	32922	
4616	0	32844	
4617	0	32568	
4618	0	32464	
4619	0	32416	
4620	0	32596	
4621	0	33044	
4622	0	33474	
4623	0	33496	
4624	0	33560	
4625	0	33600	
4626	0	33520	
4627	0	33584	
4628	0	33776	
4629	0	34040	
4630	0	34240	
4631	0	34256	
4632	0	34074	
4633	0	33820	
4634	0	33664	
4635	0	33808	
4636	0	33953	
4637	0	34008	
4638	0	34156	
4639	0	34356	
4640	0	34448	
4641	0	34864	
4642	0	35400	
4643	0	35624	
4644	0	35672	
4645	0	35656	
4646	0	35352	
4647	0	35040	
4648	0	34712	
4649	0	34556	
4650	0	34224	
4651	0	34008	
4652	0	33536	
4653	0	33344	
4654	0	33664	
4655	0	33216	
4656	0	32856	
4657	0	32312	
4658	0	31780	
4659	0	31532	
4660	0	31504	
4661	0	31660	
4662	0	31976	
4663	0	32428	
4664	0	32968	
4665	0	33496	
4666	0	33720	
4667	0	33690	
4668	0	33256	
4669	0	32824	
4670	0	32356	
4671	0	32004	
4672	0	31940	
4673	0	31672	
4674	0	31516	
4675	0	31680	
4676	0	31928	
4677	0	32368	
4678	0	32868	
4679	0	33064	
4680	0	33432	
4681	0	33864	
4682	0	34616	
4683	0	35244	
4684	0	35696	
4685	0	36148	
4686	0	35992	
4687	0	35192	
4688	0	34252	
4689	0	33304	
4690	0	32340	
4691	0	31252	
4692	0	30484	
4693	0	29820	
4694	0	29784	
4695	0	30220	
4696	0	30496	
4697	0	30784	
4698	0	31326	
4699	0	31964	
4700	0	32696	
4701	0	33492	
4702	0	34428	
4703	0	34904	
4704	0	35268	
4705	0	36032	
4706	0	35950	
4707	0	35172	
4708	0	34080	
4709	0	33036	
4710	0	31424	
4711	0	29692	
4712	0	28696	
4713	0	28280	
4714	0	28416	
4715	0	29144	
4716	0	28970	
4717	0	28560	
4718	0	28692	
4719	0	29316	
4720	0	30096	
4721	0	30804	
4722	0	31712	
4723	0	32816	
4724	0	33512	
4725	0	34080	
4726	0	33936	
4727	0	32904	
4728	0	31226	
4729	0	29904	
4730	0	28660	
4731	0	27424	
4732	0	26664	
4733	0	26560	
4734	0	26988	
4735	0	27596	
4736	0	28284	
4737	0	29184	
4738	0	30640	
4739	0	32408	
4740	0	34048	
4741	0	35884	
4742	0	37996	
4743	0	40508	
4744	0	42880	
4745	0	44784	
4746	0	46552	
4747	0	48312	
4748	0	50216	
4749	0	52248	
4750	0	54224	
4751	0	56032	
4752	0	57592	
4753	0	59152	
4754	0	60368	
4755	0	61500	
4756	0	62424	
4757	0	62968	
4758	0	63252	
4759	0	63568	
4760	0	63352	
4761	0	62112	
4762	0	60680	
4763	0	58680	
4764	0	55876	
4765	0	52592	
4766	0	48736	
4767	0	44904	
4768	0	41080	
4769	0	37488	
4770	0	34278	
4771	0	30656	
4772	0	28428	
4773	0	27316	
4774	0	26912	
4775	0	26860	
4776	0	26526	
4777	0	25876	
4778	0	25184	
4779	0	24770	
4780	0	24856	
4781	0	25516	
4782	0	26400	
4783	0	27448	
4784	0	28368	
4785	0	28860	
4786	0	28300	
4787	0	26688	
4788	0	24580	
4789	0	22800	
4790	0	21008	
4791	0	19576	
4792	0	18578	
4793	0	18118	
4794	0	18448	
4795	0	19256	
4796	0	19736	
4797	0	19924	
4798	0	19688	
4799	0	20098	
4800	0	21060	
4801	0	22330	
4802	0	23488	
4803	0	24612	
4804	0	25496	
4805	0	26008	
4806	0	25624	
4807	0	24408	
4808	0	22814	
4809	0	21128	
4810	0	19736	
4811	0	18889	
4812	0	18376	
4813	0	18233	
4814	0	18720	
4815	0	19316	
4816	0	19588	
4817	0	19173	
4818	0	18988	
4819	0	19240	
4820	0	19770	
4821	0	20904	
4822	0	22564	
4823	0	24136	
4824	0	25288	
4825	0	26180	
4826	0	26076	
4827	0	25068	
4828	0	23684	
4829	0	22256	
4830	0	20923	
4831	0	19920	
4832	0	19446	
4833	0	19164	
4834	0	19272	
4835	0	19192	
4836	0	18468	
4837	0	17480	
4838	0	16682	
4839	0	17312	
4840	0	17797	
4841	0	19040	
4842	0	21032	
4843	0	23106	
4844	0	25317	
4845	0	27248	
4846	0	27880	
4847	0	27428	
4848	0	26128	
4849	0	24376	
4850	0	23328	
4851	0	22584	
4852	0	21984	
4853	0	21972	
4854	0	22384	
4855	0	23176	
4856	0	23100	
4857	0	22324	
4858	0	21644	
4859	0	21242	
4860	0	21464	
4861	0	22392	
4862	0	23574	
4863	0	25276	
4864	0	26656	
4865	0	27484	
4866	0	27296	
4867	0	26728	
4868	0	26120	
4869	0	25390	
4870	0	25332	
4871	0	25284	
4872	0	25152	
4873	0	25452	
4874	0	26052	
4875	0	26392	
4876	0	26192	
4877	0	25226	
4878	0	24754	
4879	0	24788	
4880	0	25048	
4881	0	25792	
4882	0	26808	
4883	0	27992	
4884	0	29344	
4885	0	30484	
4886	0	31040	
4887	0	31208	
4888	0	31000	
4889	0	30696	
4890	0	29576	
4891	0	28324	
4892	0	27976	
4893	0	27882	
4894	0	28672	
4895	0	29248	
4896	0	29164	
4897	0	29348	
4898	0	29388	
4899	0	29724	
4900	0	30864	
4901	0	32120	
4902	0	33260	
4903	0	34364	
4904	0	35196	
4905	0	35450	
4906	0	34096	
4907	0	32568	
4908	0	30060	
4909	0	28048	
4910	0	27500	
4911	0	27244	
4912	0	27446	
4913	0	27780	
4914	0	28598	
4915	0	29672	
4916	0	30320	
4917	0	30364	
4918	0	30644	
4919	0	31356	
4920	0	32036	
4921	0	33472	
4922	0	35012	
4923	0	36488	
4924	0	38136	
4925	0	39272	
4926	0	39404	
4927	0	38768	
4928	0	37288	
4929	0	35740	
4930	0	34608	
4931	0	33520	
4932	0	32184	
4933	0	31496	
4934	0	31504	
4935	0	32644	
4936	0	33744	
4937	0	34104	
4938	0	34488	
4939	0	34948	
4940	0	36048	
4941	0	37364	
4942	0	38732	
4943	0	39936	
4944	0	40804	
4945	0	41392	
4946	0	41288	
4947	0	40568	
4948	0	39624	
4949	0	38768	
4950	0	37600	
4951	0	36868	
4952	0	36948	
4953	0	37496	
4954	0	38104	
4955	0	38704	
4956	0	38748	
4957	0	38572	
4958	0	38568	
4959	0	38736	
4960	0	38992	
4961	0	39888	
4962	0	41088	
4963	0	42200	
4964	0	43320	
4965	0	44328	
4966	0	44496	
4967	0	44356	
4968	0	43964	
4969	0	43364	
4970	0	42824	
4971	0	42576	
4972	0	42772	
4973	0	42980	
4974	0	43504	
4975	0	44056	
4976	0	43856	
4977	0	43572	
4978	0	43572	
4979	0	43824	
4980	0	44488	
4981	0	45552	
4982	0	46760	
4983	0	47620	
4984	0	48720	
4985	0	49728	
4986	0	50196	
4987	0	49684	
4988	0	48604	
4989	0	47432	
4990	0	46972	
4991	0	46708	
4992	0	46428	
4993	0	46440	
4994	0	46872	
4995	0	46432	
4996	0	46000	
4997	0	45776	
4998	0	45864	
4999	0	46164	
5000	0	46908	
5001	0	47992	
5002	0	48784	
5003	0	49480	
5004	0	50100	
5005	0	50620	
5006	0	50752	
5007	0	50520	
5008	0	50232	
5009	0	50084	
5010	0	49584	
5011	0	48980	
5012	0	48512	
5013	0	48484	
5014	0	48972	
5015	0	49748	
5016	0	50424	
5017	0	50688	
5018	0	50560	
5019	0	50416	
5020	0	50392	
5021	0	50360	
5022	0	50368	
5023	0	50488	
5024	0	50688	
5025	0	50448	
5026	0	50080	
5027	0	49208	
5028	0	48192	
5029	0	47476	
5030	0	47048	
5031	0	46464	
5032	0	45852	
5033	0	45504	
5034	0	45508	
5035	0	45676	
5036	0	45760	
5037	0	45596	
5038	0	45720	
5039	0	46124	
5040	0	47020	
5041	0	47496	
5042	0	48148	
5043	0	48532	
5044	0	48688	
5045	0	48442	
5046	0	47456	
5047	0	46008	
5048	0	44364	
5049	0	42844	
5050	0	42080	
5051	0	41284	
5052	0	41008	
5053	0	41144	
5054	0	41604	
5055	0	42416	
5056	0	42808	
5057	0	42704	
5058	0	42364	
5059	0	42408	
5060	0	42452	
5061	0	42456	
5062	0	42624	
5063	0	42680	
5064	0	42688	
5065	0	42836	
5066	0	41600	
5067	0	40220	
5068	0	39168	
5069	0	38472	
5070	0	38204	
5071	0	38328	
5072	0	38600	
5073	0	38672	
5074	0	38764	
5075	0	38640	
5076	0	38256	
5077	0	37996	
5078	0	37772	
5079	0	37664	
5080	0	37796	
5081	0	38332	
5082	0	39176	
5083	0	40116	
5084	0	41096	
5085	0	41788	
5086	0	41820	
5087	0	41458	
5088	0	40296	
5089	0	39068	
5090	0	38034	
5091	0	37428	
5092	0	37128	
5093	0	36860	
5094	0	36604	
5095	0	36672	
5096	0	36908	
5097	0	37000	
5098	0	37348	
5099	0	37840	
5100	0	38640	
5101	0	39696	
5102	0	40144	
5103	0	41172	
5104	0	41688	
5105	0	41800	
5106	0	41344	
5107	0	40428	
5108	0	39364	
5109	0	38192	
5110	0	37224	
5111	0	36336	
5112	0	35628	
5113	0	34976	
5114	0	34816	
5115	0	34708	
5116	0	34648	
5117	0	33844	
5118	0	32852	
5119	0	32468	
5120	0	32800	
5121	0	33612	
5122	0	34360	
5123	0	35180	
5124	0	35696	
5125	0	35864	
5126	0	35560	
5127	0	34936	
5128	0	34192	
5129	0	33368	
5130	0	32656	
5131	0	32048	
5132	0	31776	
5133	0	31896	
5134	0	31828	
5135	0	31244	
5136	0	30608	
5137	0	30296	
5138	0	29864	
5139	0	29828	
5140	0	29980	
5141	0	30136	
5142	0	30376	
5143	0	30834	
5144	0	31744	
5145	0	32528	
5146	0	32762	
5147	0	32516	
5148	0	31968	
5149	0	31280	
5150	0	30288	
5151	0	29444	
5152	0	28784	
5153	0	28512	
5154	0	28640	
5155	0	29004	
5156	0	29612	
5157	0	30336	
5158	0	30900	
5159	0	31736	
5160	0	32904	
5161	0	33968	
5162	0	34808	
5163	0	35552	
5164	0	36116	
5165	0	36440	
5166	0	36088	
5167	0	35192	
5168	0	34336	
5169	0	33800	
5170	0	33612	
5171	0	33952	
5172	0	34120	
5173	0	34004	
5174	0	34300	
5175	0	34544	
5176	0	34096	
5177	0	33376	
5178	0	32924	
5179	0	32732	
5180	0	33376	
5181	0	34296	
5182	0	35140	
5183	0	35972	
5184	0	36876	
5185	0	37228	
5186	0	37012	
5187	0	36624	
5188	0	36216	
5189	0	35664	
5190	0	35012	
5191	0	34824	
5192	0	34824	
5193	0	34936	
5194	0	35228	
5195	0	35472	
5196	0	35274	
5197	0	34796	
5198	0	34282	
5199	0	34056	
5200	0	34464	
5201	0	35188	
5202	0	36048	
5203	0	36952	
5204	0	37676	
5205	0	37704	
5206	0	36920	
5207	0	35652	
5208	0	34008	
5209	0	32764	
5210	0	31816	
5211	0	30840	
5212	0	30574	
5213	0	30154	
5214	0	30400	
5215	0	31098	
5216	0	31744	
5217	0	32452	
5218	0	33036	
5219	0	33528	
5220	0	33712	
5221	0	33936	
5222	0	34168	
5223	0	34432	
5224	0	34788	
5225	0	34792	
5226	0	34064	
5227	0	32772	
5228	0	31560	
5229	0	30296	
5230	0	29488	
5231	0	29354	
5232	0	28444	
5233	0	28456	
5234	0	28888	
5235	0	29320	
5236	0	29504	
5237	0	29420	
5238	0	29288	
5239	0	29225	
5240	0	29404	
5241	0	30236	
5242	0	31432	
5243	0	32552	
5244	0	33692	
5245	0	34472	
5246	0	34566	
5247	0	33741	
5248	0	32056	
5249	0	30368	
5250	0	29056	
5251	0	27924	
5252	0	27224	
5253	0	26660	
5254	0	26512	
5255	0	26412	
5256	0	26324	
5257	0	26096	
5258	0	25634	
5259	0	25392	
5260	0	25688	
5261	0	26418	
5262	0	27412	
5263	0	28440	
5264	0	29404	
5265	0	30228	
5266	0	30442	
5267	0	30188	
5268	0	29456	
5269	0	28804	
5270	0	27872	
5271	0	26800	
5272	0	26020	
5273	0	25732	
5274	0	25900	
5275	0	26052	
5276	0	26340	
5277	0	26632	
5278	0	27260	
5279	0	27876	
5280	0	28768	
5281	0	29856	
5282	0	30772	
5283	0	31952	
5284	0	31936	
5285	0	31516	
5286	0	31146	
5287	0	30120	
5288	0	28812	
5289	0	27592	
5290	0	26684	
5291	0	26336	
5292	0	25944	
5293	0	25868	
5294	0	26168	
5295	0	26908	
5296	0	27376	
5297	0	27696	
5298	0	28116	
5299	0	28440	
5300	0	29186	
5301	0	29872	
5302	0	30392	
5303	0	30924	
5304	0	31652	
5305	0	32168	
5306	0	31884	
5307	0	31172	
5308	0	30072	
5309	0	28840	
5310	0	28056	
5311	0	27580	
5312	0	27196	
5313	0	27432	
5314	0	27688	
5315	0	27620	
5316	0	27768	
5317	0	27936	
5318	0	28516	
5319	0	29204	
5320	0	29760	
5321	0	30500	
5322	0	31388	
5323	0	32220	
5324	0	32668	
5325	0	33100	
5326	0	33264	
5327	0	32816	
5328	0	32300	
5329	0	31744	
5330	0	31200	
5331	0	30572	
5332	0	30072	
5333	0	29404	
5334	0	29052	
5335	0	28980	
5336	0	29152	
5337	0	29132	
5338	0	29364	
5339	0	29936	
5340	0	30696	
5341	0	32160	
5342	0	33624	
5343	0	34744	
5344	0	35544	
5345	0	36128	
5346	0	36084	
5347	0	35452	
5348	0	34468	
5349	0	33416	
5350	0	32408	
5351	0	31552	
5352	0	30864	
5353	0	30600	
5354	0	30784	
5355	0	31524	
5356	0	31752	
5357	0	31632	
5358	0	31512	
5359	0	31836	
5360	0	32504	
5361	0	33160	
5362	0	33728	
5363	0	34888	
5364	0	35704	
5365	0	36428	
5366	0	36520	
5367	0	36032	
5368	0	34972	
5369	0	33576	
5370	0	32376	
5371	0	31370	
5372	0	30664	
5373	0	30320	
5374	0	30464	
5375	0	30824	
5376	0	31008	
5377	0	30988	
5378	0	30780	
5379	0	30556	
5380	0	30432	
5381	0	30416	
5382	0	30544	
5383	0	31084	
5384	0	31740	
5385	0	32280	
5386	0	32860	
5387	0	32520	
5388	0	31448	
5389	0	30616	
5390	0	29976	
5391	0	29472	
5392	0	29208	
5393	0	29346	
5394	0	29528	
5395	0	29608	
5396	0	29636	
5397	0	29504	
5398	0	29684	
5399	0	30024	
5400	0	30676	
5401	0	31208	
5402	0	31752	
5403	0	32528	
5404	0	33288	
5405	0	33912	
5406	0	33808	
5407	0	33362	
5408	0	32512	
5409	0	31544	
5410	0	30860	
5411	0	30172	
5412	0	30336	
5413	0	30320	
5414	0	30788	
5415	0	31504	
5416	0	31740	
5417	0	31608	
5418	0	31040	
5419	0	30422	
5420	0	30232	
5421	0	30416	
5422	0	30888	
5423	0	31262	
5424	0	32464	
5425	0	33360	
5426	0	33556	
5427	0	32884	
5428	0	31916	
5429	0	31224	
5430	0	30640	
5431	0	30472	
5432	0	30756	
5433	0	31080	
5434	0	31480	
5435	0	32116	
5436	0	32512	
5437	0	32376	
5438	0	32128	
5439	0	31716	
5440	0	31568	
5441	0	32064	
5442	0	32892	
5443	0	33804	
5444	0	34576	
5445	0	34896	
5446	0	34424	
5447	0	33656	
5448	0	32712	
5449	0	31664	
5450	0	30844	
5451	0	30372	
5452	0	30353	
5453	0	30640	
5454	0	31058	
5455	0	31688	
5456	0	31600	
5457	0	31292	
5458	0	31120	
5459	0	31620	
5460	0	32104	
5461	0	33400	
5462	0	35392	
5463	0	37664	
5464	0	39972	
5465	0	42060	
5466	0	43816	
5467	0	45356	
5468	0	46180	
5469	0	46988	
5470	0	48328	
5471	0	49848	
5472	0	51832	
5473	0	54184	
5474	0	56568	
5475	0	59184	
5476	0	61648	
5477	0	63460	
5478	0	64784	
5479	0	65535	
5480	0	65535	
5481	0	65535	
5482	0	65535	
5483	0	65535	
5484	0	65535	
5485	0	65535	
5486	0	65535	
5487	0	65535	
5488	0	65535	
5489	0	59980	
5490	0	55160	
5491	0	51144	
5492	0	47936	
5493	0	45412	
5494	0	43140	
5495	0	41332	
5496	0	39348	
5497	0	37692	
5498	0	36032	
5499	0	35112	
5500	0	34764	
5501	0	34604	
5502	0	34916	
5503	0	35788	
5504	0	36628	
5505	0	37208	
5506	0	37280	
5507	0	36472	
5508	0	35208	
5509	0	34120	
5510	0	33328	
5511	0	32409	
5512	0	31504	
5513	0	31028	
5514	0	31032	
5515	0	31664	
5516	0	31968	
5517	0	31416	
5518	0	31500	
5519	0	31868	
5520	0	32348	
5521	0	32828	
5522	0	33392	
5523	0	33896	
5524	0	34388	
5525	0	34908	
5526	0	34860	
5527	0	34188	
5528	0	33192	
5529	0	32104	
5530	0	31392	
5531	0	30768	
5532	0	29848	
5533	0	29296	
5534	0	28948	
5535	0	29100	
5536	0	29001	
5537	0	28920	
5538	0	28976	
5539	0	29228	
5540	0	30140	
5541	0	31260	
5542	0	32248	
5543	0	33280	
5544	0	34468	
5545	0	35320	
5546	0	35496	
5547	0	35164	
5548	0	34484	
5549	0	33536	
5550	0	32218	
5551	0	30876	
5552	0	29920	
5553	0	29360	
5554	0	29184	
5555	0	29680	
5556	0	29841	
5557	0	29392	
5558	0	29688	
5559	0	30154	
5560	0	30776	
5561	0	31588	
5562	0	32596	
5563	0	33744	
5564	0	34772	
5565	0	35512	
5566	0	35560	
5567	0	34868	
5568	0	33668	
5569	0	32400	
5570	0	31224	
5571	0	30356	
5572	0	29976	
5573	0	29712	
5574	0	30144	
5575	0	31004	
5576	0	31528	
5577	0	31616	
5578	0	31808	
5579	0	31872	
5580	0	32328	
5581	0	33000	
5582	0	33740	
5583	0	34476	
5584	0	35284	
5585	0	35952	
5586	0	35780	
5587	0	34856	
5588	0	33564	
5589	0	32544	
5590	0	32328	
5591	0	31884	
5592	0	31540	
5593	0	31476	
5594	0	31684	
5595	0	32276	
5596	0	32472	
5597	0	32232	
5598	0	32240	
5599	0	32404	
5600	0	32968	
5601	0	33700	
5602	0	34288	
5603	0	35304	
5604	0	35786	
5605	0	36440	
5606	0	36676	
5607	0	35900	
5608	0	34646	
5609	0	32780	
5610	0	31052	
5611	0	30008	
5612	0	29496	
5613	0	28844	
5614	0	29034	
5615	0	30216	
5616	0	30996	
5617	0	31548	
5618	0	32032	
5619	0	32412	
5620	0	32992	
5621	0	33914	
5622	0	34832	
5623	0	35584	
5624	0	36252	
5625	0	36472	
5626	0	35832	
5627	0	34632	
5628	0	33444	
5629	0	32372	
5630	0	31692	
5631	0	31324	
5632	0	31160	
5633	0	31240	
5634	0	31500	
5635	0	31968	
5636	0	31972	
5637	0	31866	
5638	0	31700	
5639	0	31680	
5640	0	31956	
5641	0	32736	
5642	0	33832	
5643	0	34680	
5644	0	35468	
5645	0	36056	
5646	0	35748	
5647	0	34936	
5648	0	33940	
5649	0	33248	
5650	0	32368	
5651	0	31572	
5652	0	31464	
5653	0	31724	
5654	0	32400	
5655	0	33128	
5656	0	33704	
5657	0	33916	
5658	0	33548	
5659	0	33196	
5660	0	33180	
5661	0	33400	
5662	0	33866	
5663	0	34876	
5664	0	35968	
5665	0	36724	
5666	0	37016	
5667	0	36408	
5668	0	35968	
5669	0	34912	
5670	0	33752	
5671	0	32862	
5672	0	32484	
5673	0	32456	
5674	0	32812	
5675	0	33404	
5676	0	33784	
5677	0	33980	
5678	0	34216	
5679	0	34364	
5680	0	34616	
5681	0	35148	
5682	0	35984	
5683	0	37160	
5684	0	38554	
5685	0	39236	
5686	0	39156	
5687	0	38428	
5688	0	37492	
5689	0	36240	
5690	0	35160	
5691	0	34580	
5692	0	34656	
5693	0	34900	
5694	0	35140	
5695	0	35888	
5696	0	36368	
5697	0	36444	
5698	0	36348	
5699	0	36120	
5700	0	35888	
5701	0	36120	
5702	0	37156	
5703	0	38372	
5704	0	39264	
5705	0	40136	
5706	0	40404	
5707	0	40212	
5708	0	39592	
5709	0	38624	
5710	0	37684	
5711	0	36904	
5712	0	36348	
5713	0	36180	
5714	0	36576	
5715	0	36352	
5716	0	36426	
5717	0	36692	
5718	0	37184	
5719	0	37804	
5720	0	38536	
5721	0	39424	
5722	0	40264	
5723	0	41048	
5724	0	41816	
5725	0	42536	
5726	0	42772	
5727	0	42160	
5728	0	40916	
5729	0	39824	
5730	0	38976	
5731	0	38000	
5732	0	37624	
5733	0	37592	
5734	0	37820	
5735	0	38480	
5736	0	38740	
5737	0	39004	
5738	0	39192	
5739	0	39144	
5740	0	39216	
5741	0	39520	
5742	0	40272	
5743	0	41164	
5744	0	42148	
5745	0	42896	
5746	0	42640	
5747	0	42008	
5748	0	41188	
5749	0	39960	
5750	0	38624	
5751	0	37520	
5752	0	36900	
5753	0	36392	
5754	0	36384	
5755	0	36732	
5756	0	36972	
5757	0	36984	
5758	0	37140	
5759	0	37516	
5760	0	37884	
5761	0	38548	
5762	0	39216	
5763	0	39476	
5764	0	39760	
5765	0	40208	
5766	0	39576	
5767	0	38292	
5768	0	36996	
5769	0	35652	
5770	0	34400	
5771	0	33292	
5772	0	32560	
5773	0	32224	
5774	0	32248	
5775	0	32716	
5776	0	33020	
5777	0	32724	
5778	0	32784	
5779	0	33080	
5780	0	33536	
5781	0	34260	
5782	0	35128	
5783	0	36084	
5784	0	36960	
5785	0	37336	
5786	0	36632	
5787	0	35284	
5788	0	33448	
5789	0	31876	
5790	0	30860	
5791	0	30036	
5792	0	29680	
5793	0	29452	
5794	0	29352	
5795	0	29602	
5796	0	30044	
5797	0	29752	
5798	0	29442	
5799	0	29524	
5800	0	29818	
5801	0	30420	
5802	0	31104	
5803	0	31888	
5804	0	33160	
5805	0	34148	
5806	0	34008	
5807	0	33196	
5808	0	31764	
5809	0	30369	
5810	0	29114	
5811	0	28132	
5812	0	27580	
5813	0	27140	
5814	0	26964	
5815	0	27596	
5816	0	28012	
5817	0	28088	
5818	0	28156	
5819	0	28512	
5820	0	28940	
5821	0	29908	
5822	0	30988	
5823	0	32132	
5824	0	33272	
5825	0	34060	
5826	0	34056	
5827	0	33180	
5828	0	32204	
5829	0	31072	
5830	0	29744	
5831	0	28604	
5832	0	27960	
5833	0	28050	
5834	0	28592	
5835	0	29508	
5836	0	30148	
5837	0	30250	
5838	0	30120	
5839	0	30008	
5840	0	30166	
5841	0	30624	
5842	0	31328	
5843	0	32176	
5844	0	32844	
5845	0	33608	
5846	0	33640	
5847	0	32892	
5848	0	31936	
5849	0	30976	
5850	0	30292	
5851	0	29776	
5852	0	29516	
5853	0	29512	
5854	0	30136	
5855	0	30944	
5856	0	31296	
5857	0	31312	
5858	0	31476	
5859	0	31264	
5860	0	31252	
5861	0	31800	
5862	0	32458	
5863	0	33108	
5864	0	33708	
5865	0	34512	
5866	0	34748	
5867	0	34272	
5868	0	33020	
5869	0	31968	
5870	0	31112	
5871	0	30304	
5872	0	29944	
5873	0	30192	
5874	0	30864	
5875	0	31800	
5876	0	32480	
5877	0	32872	
5878	0	32880	
5879	0	32556	
5880	0	32356	
5881	0	32560	
5882	0	33520	
5883	0	34108	
5884	0	34360	
5885	0	34448	
5886	0	34232	
5887	0	33532	
5888	0	32432	
5889	0	31652	
5890	0	30988	
5891	0	30096	
5892	0	29634	
5893	0	29624	
5894	0	29976	
5895	0	30810	
5896	0	30932	
5897	0	30496	
5898	0	30480	
5899	0	30844	
5900	0	31448	
5901	0	32412	
5902	0	33516	
5903	0	34554	
5904	0	35516	
5905	0	36220	
5906	0	36160	
5907	0	35344	
5908	0	34472	
5909	0	33628	
5910	0	32880	
5911	0	32140	
5912	0	31760	
5913	0	31412	
5914	0	31660	
5915	0	32192	
5916	0	32324	
5917	0	32244	
5918	0	32080	
5919	0	31784	
5920	0	31992	
5921	0	32192	
5922	0	33032	
5923	0	34168	
5924	0	35284	
5925	0	35932	
5926	0	36016	
5927	0	35372	
5928	0	34432	
5929	0	33440	
5930	0	32176	
5931	0	30976	
5932	0	30200	
5933	0	30136	
5934	0	30360	
5935	0	30808	
5936	0	31024	
5937	0	30876	
5938	0	30560	
5939	0	30548	
5940	0	31216	
5941	0	32560	
5942	0	33432	
5943	0	34400	
5944	0	35304	
5945	0	36040	
5946	0	35928	
5947	0	34848	
5948	0	33450	
5949	0	32276	
5950	0	31416	
5951	0	30656	
5952	0	30114	
5953	0	30192	
5954	0	30532	
5955	0	30984	
5956	0	31272	
5957	0	31268	
5958	0	31444	
5959	0	32148	
5960	0	32888	
5961	0	33610	
5962	0	34504	
5963	0	35324	
5964	0	35844	
5965	0	36424	
5966	0	36288	
5967	0	35376	
5968	0	34096	
5969	0	33232	
5970	0	32328	
5971	0	31664	
5972	0	31428	
5973	0	31612	
5974	0	32056	
5975	0	32536	
5976	0	32500	
5977	0	32116	
5978	0	31024	
5979	0	30776	
5980	0	31116	
5981	0	31820	
5982	0	32856	
5983	0	33984	
5984	0	35000	
5985	0	35704	
5986	0	35784	
5987	0	35316	
5988	0	34264	
5989	0	33128	
5990	0	32268	
5991	0	31464	
5992	0	31588	
5993	0	31736	
5994	0	31244	
5995	0	31384	
5996	0	31488	
5997	0	31276	
5998	0	31316	
5999	0	31744	
6000	0	32312	
6001	0	32944	
6002	0	33488	
6003	0	34472	
6004	0	35848	
6005	0	37024	
6006	0	37292	
6007	0	36648	
6008	0	35560	
6009	0	34292	
6010	0	32936	
6011	0	31852	
6012	0	31172	
6013	0	30600	
6014	0	30816	
6015	0	31372	
6016	0	31620	
6017	0	31708	
6018	0	31876	
6019	0	32024	
6020	0	32444	
6021	0	33380	
6022	0	34156	
6023	0	35036	
6024	0	35984	
6025	0	36744	
6026	0	36904	
6027	0	36388	
6028	0	35324	
6029	0	34124	
6030	0	33356	
6031	0	32612	
6032	0	32276	
6033	0	32284	
6034	0	32568	
6035	0	33028	
6036	0	33124	
6037	0	32760	
6038	0	32436	
6039	0	32196	
6040	0	32304	
6041	0	32868	
6042	0	33968	
6043	0	35144	
6044	0	36076	
6045	0	37032	
6046	0	37592	
6047	0	37180	
6048	0	36344	
6049	0	35324	
6050	0	34184	
6051	0	33044	
6052	0	32288	
6053	0	31780	
6054	0	31482	
6055	0	31592	
6056	0	31610	
6057	0	31660	
6058	0	31768	
6059	0	32016	
6060	0	32656	
6061	0	34000	
6062	0	34482	
6063	0	35444	
6064	0	36548	
6065	0	37108	
6066	0	36842	
6067	0	36104	
6068	0	34880	
6069	0	33480	
6070	0	31936	
6071	0	31100	
6072	0	30836	
6073	0	31256	
6074	0	31732	
6075	0	32168	
6076	0	32168	
6077	0	31720	
6078	0	31624	
6079	0	31602	
6080	0	31732	
6081	0	32248	
6082	0	32948	
6083	0	33864	
6084	0	34876	
6085	0	35692	
6086	0	35868	
6087	0	35200	
6088	0	34208	
6089	0	33248	
6090	0	32040	
6091	0	31020	
6092	0	30604	
6093	0	30400	
6094	0	30276	
6095	0	30668	
6096	0	31068	
6097	0	31284	
6098	0	31348	
6099	0	31584	
6100	0	32084	
6101	0	32944	
6102	0	34336	
6103	0	35792	
6104	0	37072	
6105	0	37924	
6106	0	37856	
6107	0	36872	
6108	0	35392	
6109	0	33796	
6110	0	32446	
6111	0	31340	
6112	0	30564	
6113	0	30232	
6114	0	30418	
6115	0	31000	
6116	0	30996	
6117	0	31170	
6118	0	31564	
6119	0	31812	
6120	0	32212	
6121	0	33092	
6122	0	34146	
6123	0	34986	
6124	0	35544	
6125	0	36096	
6126	0	36008	
6127	0	35436	
6128	0	34184	
6129	0	32936	
6130	0	31868	
6131	0	30752	
6132	0	30040	
6133	0	29854	
6134	0	30112	
6135	0	31104	
6136	0	31236	
6137	0	30796	
6138	0	30202	
6139	0	29852	
6140	0	30134	
6141	0	30700	
6142	0	31656	
6143	0	32856	
6144	0	34128	
6145	0	35224	
6146	0	35944	
6147	0	36144	
6148	0	36000	
6149	0	36132	
6150	0	36632	
6151	0	37504	
6152	0	38720	
6153	0	40040	
6154	0	41616	
6155	0	43644	
6156	0	45752	
6157	0	47988	
6158	0	50656	
6159	0	53912	
6160	0	57344	
6161	0	59880	
6162	0	61200	
6163	0	61868	
6164	0	62176	
6165	0	62312	
6166	0	62320	
6167	0	62296	
6168	0	62216	
6169	0	62136	
6170	0	62048	
6171	0	61976	
6172	0	61896	
6173	0	61780	
6174	0	57452	
6175	0	53480	
6176	0	49984	
6177	0	46788	
6178	0	43888	
6179	0	41468	
6180	0	39344	
6181	0	37720	
6182	0	36872	
6183	0	36680	
6184	0	36848	
6185	0	37148	
6186	0	36988	
6187	0	36172	
6188	0	35148	
6189	0	34114	
6190	0	33128	
6191	0	32136	
6192	0	31704	
6193	0	31068	
6194	0	31024	
6195	0	31176	
6196	0	31128	
6197	0	30876	
6198	0	30588	
6199	0	30680	
6200	0	30874	
6201	0	31240	
6202	0	31876	
6203	0	32736	
6204	0	33348	
6205	0	33800	
6206	0	33628	
6207	0	32968	
6208	0	31674	
6209	0	30304	
6210	0	29312	
6211	0	28448	
6212	0	27712	
6213	0	27576	
6214	0	27732	
6215	0	28212	
6216	0	28220	
6217	0	27880	
6218	0	27736	
6219	0	27840	
6220	0	28106	
6221	0	28828	
6222	0	29948	
6223	0	31156	
6224	0	32044	
6225	0	32888	
6226	0	33132	
6227	0	32552	
6228	0	31416	
6229	0	30168	
6230	0	28928	
6231	0	28252	
6232	0	28016	
6233	0	28048	
6234	0	28104	
6235	0	28388	
6236	0	28442	
6237	0	27924	
6238	0	27396	
6239	0	27228	
6240	0	27880	
6241	0	28600	
6242	0	29650	
6243	0	31104	
6244	0	32012	
6245	0	32656	
6246	0	32828	
6247	0	32240	
6248	0	31380	
6249	0	29956	
6250	0	28640	
6251	0	27980	
6252	0	27654	
6253	0	27524	
6254	0	28100	
6255	0	28704	
6256	0	28500	
6257	0	28304	
6258	0	28112	
6259	0	28226	
6260	0	28856	
6261	0	29968	
6262	0	31088	
6263	0	32256	
6264	0	33776	
6265	0	34776	
6266	0	35052	
6267	0	34224	
6268	0	32888	
6269	0	31620	
6270	0	30616	
6271	0	30024	
6272	0	29664	
6273	0	29580	
6274	0	29896	
6275	0	30192	
6276	0	30560	
6277	0	30472	
6278	0	29980	
6279	0	29696	
6280	0	29882	
6281	0	30408	
6282	0	31144	
6283	0	31928	
6284	0	32720	
6285	0	33458	
6286	0	33800	
6287	0	33596	
6288	0	32952	
6289	0	32104	
6290	0	31160	
6291	0	30524	
6292	0	30012	
6293	0	29908	
6294	0	30484	
6295	0	30932	
6296	0	31204	
6297	0	31410	
6298	0	31468	
6299	0	31620	
6300	0	31770	
6301	0	32116	
6302	0	32768	
6303	0	33560	
6304	0	34072	
6305	0	34576	
6306	0	34436	
6307	0	33604	
6308	0	32440	
6309	0	31412	
6310	0	30704	
6311	0	29932	
6312	0	29632	
6313	0	29904	
6314	0	30426	
6315	0	31132	
6316	0	31420	
6317	0	31152	
6318	0	30984	
6319	0	30932	
6320	0	31528	
6321	0	31876	
6322	0	32370	
6323	0	32896	
6324	0	33628	
6325	0	34520	
6326	0	34920	
6327	0	34168	
6328	0	33168	
6329	0	32304	
6330	0	31296	
6331	0	30664	
6332	0	30224	
6333	0	29836	
6334	0	30000	
6335	0	30712	
6336	0	31168	
6337	0	31148	
6338	0	30628	
6339	0	30504	
6340	0	30596	
6341	0	31296	
6342	0	32448	
6343	0	33712	
6344	0	34932	
6345	0	35960	
6346	0	36320	
6347	0	35772	
6348	0	34664	
6349	0	33200	
6350	0	31816	
6351	0	30594	
6352	0	29736	
6353	0	29332	
6354	0	29728	
6355	0	30632	
6356	0	31424	
6357	0	31622	
6358	0	31276	
6359	0	31344	
6360	0	31904	
6361	0	32640	
6362	0	33520	
6363	0	34412	
6364	0	35464	
6365	0	36176	
6366	0	36528	
6367	0	36716	
6368	0	35984	
6369	0	34560	
6370	0	33548	
6371	0	32920	
6372	0	32424	
6373	0	32160	
6374	0	32359	
6375	0	32836	
6376	0	32972	
6377	0	32688	
6378	0	32516	
6379	0	32776	
6380	0	33060	
6381	0	33772	
6382	0	34696	
6383	0	35752	
6384	0	36818	
6385	0	37664	
6386	0	37824	
6387	0	37204	
6388	0	36252	
6389	0	34824	
6390	0	33792	
6391	0	33136	
6392	0	32604	
6393	0	32724	
6394	0	33412	
6395	0	33976	
6396	0	34254	
6397	0	33956	
6398	0	33952	
6399	0	34604	
6400	0	35162	
6401	0	35960	
6402	0	37266	
6403	0	38512	
6404	0	39364	
6405	0	40064	
6406	0	40172	
6407	0	39272	
6408	0	38104	
6409	0	36808	
6410	0	35364	
6411	0	34328	
6412	0	33648	
6413	0	33240	
6414	0	33484	
6415	0	34234	
6416	0	34680	
6417	0	35012	
6418	0	35048	
6419	0	35136	
6420	0	35504	
6421	0	36096	
6422	0	37204	
6423	0	38196	
6424	0	39624	
6425	0	40256	
6426	0	40056	
6427	0	39184	
6428	0	37876	
6429	0	36616	
6430	0	35556	
6431	0	33736	
6432	0	32764	
6433	0	32568	
6434	0	32896	
6435	0	33428	
6436	0	33784	
6437	0	33864	
6438	0	33956	
6439	0	34244	
6440	0	34376	
6441	0	35056	
6442	0	35880	
6443	0	36530	
6444	0	37152	
6445	0	37952	
6446	0	38116	
6447	0	37232	
6448	0	35712	
6449	0	34348	
6450	0	32844	
6451	0	31424	
6452	0	30472	
6453	0	30184	
6454	0	29872	
6455	0	29804	
6456	0	29840	
6457	0	29668	
6458	0	29556	
6459	0	29600	
6460	0	29540	
6461	0	29852	
6462	0	30620	
6463	0	31608	
6464	0	32648	
6465	0	33544	
6466	0	33540	
6467	0	32584	
6468	0	31392	
6469	0	30080	
6470	0	28908	
6471	0	27880	
6472	0	27156	
6473	0	26768	
6474	0	26640	
6475	0	26874	
6476	0	27026	
6477	0	26940	
6478	0	26916	
6479	0	27028	
6480	0	27188	
6481	0	27668	
6482	0	28332	
6483	0	29212	
6484	0	30056	
6485	0	30872	
6486	0	31328	
6487	0	30380	
6488	0	29384	
6489	0	28096	
6490	0	27138	
6491	0	26312	
6492	0	25944	
6493	0	25976	
6494	0	26184	
6495	0	26496	
6496	0	26356	
6497	0	25752	
6498	0	25248	
6499	0	25034	
6500	0	25000	
6501	0	25398	
6502	0	26340	
6503	0	27300	
6504	0	28384	
6505	0	29204	
6506	0	29580	
6507	0	29212	
6508	0	28408	
6509	0	27548	
6510	0	26760	
6511	0	25692	
6512	0	24984	
6513	0	24644	
6514	0	24524	
6515	0	24904	
6516	0	25396	
6517	0	25392	
6518	0	25588	
6519	0	26136	
6520	0	26904	
6521	0	27900	
6522	0	29018	
6523	0	29792	
6524	0	30604	
6525	0	31964	
6526	0	32156	
6527	0	31564	
6528	0	30728	
6529	0	29904	
6530	0	28908	
6531	0	27680	
6532	0	26752	
6533	0	26204	
6534	0	25706	
6535	0	26050	
6536	0	26552	
6537	0	26376	
6538	0	25888	
6539	0	25608	
6540	0	25652	
6541	0	26508	
6542	0	27728	
6543	0	29224	
6544	0	30592	
6545	0	31740	
6546	0	32088	
6547	0	31808	
6548	0	31024	
6549	0	29884	
6550	0	28740	
6551	0	27928	
6552	0	27204	
6553	0	26504	
6554	0	26432	
6555	0	26884	
6556	0	27264	
6557	0	27112	
6558	0	27016	
6559	0	27252	
6560	0	28284	
6561	0	29628	
6562	0	30728	
6563	0	31648	
6564	0	32444	
6565	0	32948	
6566	0	32864	
6567	0	32184	
6568	0	30920	
6569	0	29624	
6570	0	28442	
6571	0	27448	
6572	0	26724	
6573	0	26404	
6574	0	26360	
6575	0	26888	
6576	0	27090	
6577	0	27064	
6578	0	27352	
6579	0	27612	
6580	0	28120	
6581	0	29113	
6582	0	29228	
6583	0	29788	
6584	0	30664	
6585	0	31674	
6586	0	31908	
6587	0	31468	
6588	0	30744	
6589	0	29696	
6590	0	28632	
6591	0	27532	
6592	0	26753	
6593	0	26592	
6594	0	27160	
6595	0	27776	
6596	0	27900	
6597	0	27576	
6598	0	27384	
6599	0	27488	
6600	0	27954	
6601	0	28616	
6602	0	29408	
6603	0	30472	
6604	0	31312	
6605	0	32384	
6606	0	33052	
6607	0	32476	
6608	0	31532	
6609	0	30592	
6610	0	29430	
6611	0	27864	
6612	0	26656	
6613	0	26418	
6614	0	26680	
6615	0	27540	
6616	0	28520	
6617	0	28928	
6618	0	28888	
6619	0	28826	
6620	0	28560	
6621	0	28336	
6622	0	28400	
6623	0	28960	
6624	0	29898	
6625	0	30884	
6626	0	31256	
6627	0	31224	
6628	0	30658	
6629	0	29776	
6630	0	28652	
6631	0	27600	
6632	0	27056	
6633	0	26290	
6634	0	26040	
6635	0	26444	
6636	0	27148	
6637	0	27552	
6638	0	27860	
6639	0	28240	
6640	0	28660	
6641	0	29140	
6642	0	29540	
6643	0	30308	
6644	0	31104	
6645	0	31700	
6646	0	32032	
6647	0	31778	
6648	0	31104	
6649	0	30328	
6650	0	29444	
6651	0	28982	
6652	0	28540	
6653	0	28448	
6654	0	28740	
6655	0	29196	
6656	0	29612	
6657	0	29796	
6658	0	29658	
6659	0	29716	
6660	0	30056	
6661	0	30448	
6662	0	30976	
6663	0	31228	
6664	0	31664	
6665	0	32232	
6666	0	32956	
6667	0	32928	
6668	0	31984	
6669	0	31220	
6670	0	30820	
6671	0	30410	
6672	0	29165	
6673	0	28074	
6674	0	28220	
6675	0	28156	
6676	0	28168	
6677	0	27836	
6678	0	27681	
6679	0	27820	
6680	0	28056	
6681	0	28464	
6682	0	29120	
6683	0	30096	
6684	0	31188	
6685	0	32508	
6686	0	33352	
6687	0	33152	
6688	0	32368	
6689	0	31456	
6690	0	30844	
6691	0	30288	
6692	0	29568	
6693	0	29392	
6694	0	29294	
6695	0	29620	
6696	0	30072	
6697	0	30180	
6698	0	30224	
6699	0	30784	
6700	0	31584	
6701	0	32544	
6702	0	33292	
6703	0	33572	
6704	0	34092	
6705	0	34580	
6706	0	34324	
6707	0	33029	
6708	0	31436	
6709	0	30412	
6710	0	29664	
6711	0	28952	
6712	0	28164	
6713	0	28036	
6714	0	28252	
6715	0	28837	
6716	0	29656	
6717	0	30068	
6718	0	30224	
6719	0	30264	
6720	0	30456	
6721	0	31018	
6722	0	31840	
6723	0	32736	
6724	0	33664	
6725	0	34522	
6726	0	34832	
6727	0	34728	
6728	0	33288	
6729	0	31740	
6730	0	30392	
6731	0	29268	
6732	0	28198	
6733	0	27900	
6734	0	28124	
6735	0	28872	
6736	0	29300	
6737	0	29232	
6738	0	28684	
6739	0	28900	
6740	0	29224	
6741	0	29460	
6742	0	30628	
6743	0	31424	
6744	0	32380	
6745	0	33464	
6746	0	34264	
6747	0	34332	
6748	0	33624	
6749	0	32468	
6750	0	31080	
6751	0	29906	
6752	0	29276	
6753	0	28896	
6754	0	28642	
6755	0	28904	
6756	0	29064	
6757	0	28884	
6758	0	28824	
6759	0	28816	
6760	0	29044	
6761	0	29504	
6762	0	30352	
6763	0	31166	
6764	0	32428	
6765	0	33676	
6766	0	34332	
6767	0	34176	
6768	0	33476	
6769	0	32336	
6770	0	31280	
6771	0	30160	
6772	0	29274	
6773	0	29404	
6774	0	29426	
6775	0	29604	
6776	0	30032	
6777	0	30248	
6778	0	30280	
6779	0	30608	
6780	0	31352	
6781	0	31652	
6782	0	31780	
6783	0	32464	
6784	0	33216	
6785	0	33908	
6786	0	34296	
6787	0	33948	
6788	0	33024	
6789	0	32224	
6790	0	31208	
6791	0	30444	
6792	0	29864	
6793	0	29944	
6794	0	29928	
6795	0	29948	
6796	0	30140	
6797	0	29780	
6798	0	29236	
6799	0	28768	
6800	0	28724	
6801	0	29152	
6802	0	29476	
6803	0	29840	
6804	0	30774	
6805	0	31712	
6806	0	32512	
6807	0	32464	
6808	0	31912	
6809	0	31513	
6810	0	31380	
6811	0	31688	
6812	0	32288	
6813	0	33112	
6814	0	34600	
6815	0	36560	
6816	0	38264	
6817	0	39888	
6818	0	41240	
6819	0	42600	
6820	0	44656	
6821	0	47684	
6822	0	51416	
6823	0	55244	
6824	0	59268	
6825	0	62028	
6826	0	63476	
6827	0	64208	
6828	0	64552	
6829	0	64672	
6830	0	64680	
6831	0	64632	
6832	0	64564	
6833	0	64468	
6834	0	64356	
6835	0	64264	
6836	0	64036	
6837	0	59880	
6838	0	55432	
6839	0	51200	
6840	0	48120	
6841	0	46040	
6842	0	44136	
6843	0	42416	
6844	0	40820	
6845	0	39716	
6846	0	38976	
6847	0	38080	
6848	0	37048	
6849	0	35612	
6850	0	34056	
6851	0	32736	
6852	0	31616	
6853	0	30256	
6854	0	29504	
6855	0	28890	
6856	0	28844	
6857	0	28608	
6858	0	28376	
6859	0	28544	
6860	0	28940	
6861	0	29288	
6862	0	29844	
6863	0	30952	
6864	0	31788	
6865	0	32312	
6866	0	32048	
6867	0	31508	
6868	0	30708	
6869	0	29740	
6870	0	29104	
6871	0	28700	
6872	0	28452	
6873	0	28000	
6874	0	27488	
6875	0	26984	
6876	0	26828	
6877	0	26428	
6878	0	25814	
6879	0	25560	
6880	0	25776	
6881	0	26604	
6882	0	28036	
6883	0	29176	
6884	0	29980	
6885	0	30616	
6886	0	30788	
6887	0	30210	
6888	0	29160	
6889	0	27872	
6890	0	27192	
6891	0	26552	
6892	0	26052	
6893	0	26096	
6894	0	26384	
6895	0	27216	
6896	0	27844	
6897	0	27892	
6898	0	27752	
6899	0	27652	
6900	0	27904	
6901	0	28440	
6902	0	29392	
6903	0	30616	
6904	0	31788	
6905	0	33032	
6906	0	33688	
6907	0	33120	
6908	0	32228	
6909	0	29828	
6910	0	27488	
6911	0	25988	
6912	0	25132	
6913	0	24600	
6914	0	24712	
6915	0	25332	
6916	0	25740	
6917	0	26100	
6918	0	26536	
6919	0	27000	
6920	0	27636	
6921	0	28428	
6922	0	29736	
6923	0	30752	
6924	0	31656	
6925	0	32624	
6926	0	33180	
6927	0	32996	
6928	0	32260	
6929	0	31160	
6930	0	29860	
6931	0	28764	
6932	0	27744	
6933	0	27420	
6934	0	27360	
6935	0	27440	
6936	0	27762	
6937	0	27920	
6938	0	27732	
6939	0	27756	
6940	0	27740	
6941	0	28008	
6942	0	28980	
6943	0	30144	
6944	0	31352	
6945	0	32708	
6946	0	33632	
6947	0	33420	
6948	0	32228	
6949	0	30540	
6950	0	28976	
6951	0	28032	
6952	0	27040	
6953	0	26708	
6954	0	26704	
6955	0	26888	
6956	0	27033	
6957	0	26880	
6958	0	26892	
6959	0	26964	
6960	0	27336	
6961	0	27984	
6962	0	28424	
6963	0	29488	
6964	0	30732	
6965	0	31920	
6966	0	32384	
6967	0	32052	
6968	0	31096	
6969	0	29716	
6970	0	28360	
6971	0	27452	
6972	0	27160	
6973	0	26974	
6974	0	26892	
6975	0	27012	
6976	0	27396	
6977	0	27573	
6978	0	27489	
6979	0	27440	
6980	0	27840	
6981	0	28992	
6982	0	30676	
6983	0	32452	
6984	0	34136	
6985	0	35616	
6986	0	36204	
6987	0	35544	
6988	0	34092	
6989	0	32308	
6990	0	30572	
6991	0	29124	
6992	0	27656	
6993	0	26600	
6994	0	26274	
6995	0	26556	
6996	0	26784	
6997	0	26761	
6998	0	26180	
6999	0	26360	
7000	0	26948	
7001	0	27922	
7002	0	29372	
7003	0	30664	
7004	0	31896	
7005	0	32748	
7006	0	33032	
7007	0	32328	
7008	0	31182	
7009	0	29640	
7010	0	28516	
7011	0	27648	
7012	0	26765	
7013	0	26576	
7014	0	27108	
7015	0	27518	
7016	0	27916	
7017	0	28568	
7018	0	29196	
7019	0	29792	
7020	0	30680	
7021	0	31792	
7022	0	32812	
7023	0	33184	
7024	0	33912	
7025	0	34680	
7026	0	35200	
7027	0	34728	
7028	0	33864	
7029	0	32752	
7030	0	32044	
7031	0	31396	
7032	0	30296	
7033	0	29652	
7034	0	29500	
7035	0	29794	
7036	0	30532	
7037	0	30628	
7038	0	30384	
7039	0	30596	
7040	0	31232	
7041	0	31772	
7042	0	32792	
7043	0	33960	
7044	0	34976	
7045	0	36080	
7046	0	36856	
7047	0	36708	
7048	0	36004	
7049	0	34288	
7050	0	32876	
7051	0	32086	
7052	0	31604	
7053	0	31316	
7054	0	31332	
7055	0	31816	
7056	0	32664	
7057	0	33133	
7058	0	33162	
7059	0	33304	
7060	0	33704	
7061	0	34528	
7062	0	35556	
7063	0	36520	
7064	0	37300	
7065	0	38272	
7066	0	39016	
7067	0	38756	
7068	0	37520	
7069	0	36280	
7070	0	35320	
7071	0	33572	
7072	0	32376	
7073	0	32072	
7074	0	32560	
7075	0	33180	
7076	0	33720	
7077	0	33866	
7078	0	33968	
7079	0	35024	
7080	0	35896	
7081	0	36676	
7082	0	37288	
7083	0	38028	
7084	0	38728	
7085	0	39500	
7086	0	39844	
7087	0	39344	
7088	0	38616	
7089	0	37736	
7090	0	36756	
7091	0	36152	
7092	0	35464	
7093	0	34956	
7094	0	34956	
7095	0	35184	
7096	0	34916	
7097	0	34452	
7098	0	33488	
7099	0	32920	
7100	0	32922	
7101	0	33192	
7102	0	33824	
7103	0	35200	
7104	0	36620	
7105	0	37592	
7106	0	37728	
7107	0	37304	
7108	0	36344	
7109	0	35336	
7110	0	34148	
7111	0	32988	
7112	0	32192	
7113	0	31860	
7114	0	32128	
7115	0	32600	
7116	0	32752	
7117	0	32776	
7118	0	32768	
7119	0	32788	
7120	0	33096	
7121	0	32884	
7122	0	32652	
7123	0	32680	
7124	0	33018	
7125	0	33364	
7126	0	33140	
7127	0	32124	
7128	0	30712	
7129	0	29408	
7130	0	28308	
7131	0	27548	
7132	0	27140	
7133	0	26684	
7134	0	26732	
7135	0	27160	
7136	0	27492	
7137	0	27280	
7138	0	27076	
7139	0	27276	
7140	0	27548	
7141	0	28228	
7142	0	29474	
7143	0	30680	
7144	0	31980	
7145	0	32896	
7146	0	33120	
7147	0	32536	
7148	0	31328	
7149	0	30384	
7150	0	29624	
7151	0	28306	
7152	0	27272	
7153	0	26848	
7154	0	26750	
7155	0	26718	
7156	0	26996	
7157	0	27016	
7158	0	26625	
7159	0	26332	
7160	0	26660	
7161	0	27568	
7162	0	28688	
7163	0	29712	
7164	0	30838	
7165	0	31620	
7166	0	31856	
7167	0	31496	
7168	0	30460	
7169	0	29368	
7170	0	28610	
7171	0	28292	
7172	0	27956	
7173	0	27704	
7174	0	28100	
7175	0	28673	
7176	0	28916	
7177	0	28380	
7178	0	28048	
7179	0	27600	
7180	0	27496	
7181	0	27712	
7182	0	28880	
7183	0	30556	
7184	0	31856	
7185	0	33084	
7186	0	34024	
7187	0	33792	
7188	0	32832	
7189	0	31888	
7190	0	30890	
7191	0	29810	
7192	0	28940	
7193	0	28112	
7194	0	27588	
7195	0	27448	
7196	0	27588	
7197	0	27948	
7198	0	28192	
7199	0	28328	
7200	0	28296	
7201	0	29116	
7202	0	30252	
7203	0	31120	
7204	0	31788	
7205	0	32562	
7206	0	33288	
7207	0	32664	
7208	0	31680	
7209	0	30836	
7210	0	29756	
7211	0	28764	
7212	0	28309	
7213	0	27956	
7214	0	28208	
7215	0	29004	
7216	0	29656	
7217	0	29216	
7218	0	28340	
7219	0	27844	
7220	0	27960	
7221	0	28740	
7222	0	29968	
7223	0	31077	
7224	0	32436	
7225	0	33928	
7226	0	34792	
7227	0	34692	
7228	0	34216	
7229	0	33560	
7230	0	32232	
7231	0	30564	
7232	0	29344	
7233	0	28450	
7234	0	27840	
7235	0	27968	
7236	0	28884	
7237	0	29026	
7238	0	28888	
7239	0	28906	
7240	0	29220	
7241	0	30056	
7242	0	31080	
7243	0	32044	
7244	0	33072	
7245	0	34212	
7246	0	34520	
7247	0	34152	
7248	0	33328	
7249	0	32152	
7250	0	30756	
7251	0	29340	
7252	0	28292	
7253	0	27664	
7254	0	27844	
7255	0	28528	
7256	0	28932	
7257	0	29224	
7258	0	29256	
7259	0	28784	
7260	0	28956	
7261	0	29748	
7262	0	31080	
7263	0	32348	
7264	0	33440	
7265	0	34344	
7266	0	34704	
7267	0	34144	
7268	0	32696	
7269	0	31196	
7270	0	29668	
7271	0	28240	
7272	0	27592	
7273	0	27108	
7274	0	27156	
7275	0	27764	
7276	0	28418	
7277	0	28780	
7278	0	28668	
7279	0	28682	
7280	0	29208	
7281	0	29793	
7282	0	30816	
7283	0	31708	
7284	0	32692	
7285	0	33554	
7286	0	33980	
7287	0	33684	
7288	0	32984	
7289	0	31840	
7290	0	30808	
7291	0	29856	
7292	0	29160	
7293	0	28772	
7294	0	28616	
7295	0	29326	
7296	0	29576	
7297	0	29508	
7298	0	29280	
7299	0	29216	
7300	0	29556	
7301	0	30276	
7302	0	31088	
7303	0	31689	
7304	0	32480	
7305	0	33332	
7306	0	33600	
7307	0	32500	
7308	0	30964	
7309	0	29736	
7310	0	28896	
7311	0	28500	
7312	0	28072	
7313	0	27916	
7314	0	28528	
7315	0	29548	
7316	0	30588	
7317	0	31008	
7318	0	31176	
7319	0	31288	
7320	0	31504	
7321	0	32104	
7322	0	32844	
7323	0	33656	
7324	0	34208	
7325	0	34696	
7326	0	34944	
7327	0	34664	
7328	0	34000	
7329	0	32964	
7330	0	31672	
7331	0	30536	
7332	0	29692	
7333	0	29060	
7334	0	29360	
7335	0	29712	
7336	0	30136	
7337	0	30884	
7338	0	31168	
7339	0	30960	
7340	0	30720	
7341	0	31284	
7342	0	32360	
7343	0	33504	
7344	0	34756	
7345	0	35632	
7346	0	36160	
7347	0	35944	
7348	0	34664	
7349	0	32992	
7350	0	31512	
7351	0	30680	
7352	0	30012	
7353	0	29816	
7354	0	30120	
7355	0	30816	
7356	0	31408	
7357	0	31536	
7358	0	31656	
7359	0	31888	
7360	0	31940	
7361	0	32492	
7362	0	33228	
7363	0	33908	
7364	0	34712	
7365	0	35444	
7366	0	35700	
7367	0	34584	
7368	0	33088	
7369	0	31952	
7370	0	31188	
7371	0	30304	
7372	0	29512	
7373	0	29504	
7374	0	29956	
7375	0	30712	
7376	0	31376	
7377	0	31684	
7378	0	31420	
7379	0	31508	
7380	0	31616	
7381	0	31768	
7382	0	32400	
7383	0	33152	
7384	0	34032	
7385	0	34988	
7386	0	35408	
7387	0	34448	
7388	0	33100	
7389	0	31484	
7390	0	30200	
7391	0	30080	
7392	0	29396	
7393	0	29028	
7394	0	29264	
7395	0	29880	
7396	0	30552	
7397	0	30736	
7398	0	30352	
7399	0	29800	
7400	0	30064	
7401	0	30704	
7402	0	31884	
7403	0	33280	
7404	0	33972	
7405	0	34704	
7406	0	35336	
7407	0	34880	
7408	0	33676	
7409	0	32570	
7410	0	31652	
7411	0	30784	
7412	0	30096	
7413	0	29642	
7414	0	29612	
7415	0	29848	
7416	0	30506	
7417	0	31200	
7418	0	31349	
7419	0	31480	
7420	0	31568	
7421	0	31936	
7422	0	32680	
7423	0	33744	
7424	0	34968	
7425	0	35840	
7426	0	35792	
7427	0	34936	
7428	0	33900	
7429	0	32648	
7430	0	31432	
7431	0	30340	
7432	0	29544	
7433	0	29416	
7434	0	29530	
7435	0	30068	
7436	0	30952	
7437	0	30768	
7438	0	30916	
7439	0	32112	
7440	0	32344	
7441	0	32620	
7442	0	33240	
7443	0	34148	
7444	0	35044	
7445	0	35684	
7446	0	36112	
7447	0	35676	
7448	0	34252	
7449	0	32860	
7450	0	31612	
7451	0	30616	
7452	0	29864	
7453	0	29434	
7454	0	29024	
7455	0	28908	
7456	0	29144	
7457	0	29576	
7458	0	30324	
7459	0	31040	
7460	0	31624	
7461	0	32900	
7462	0	34804	
7463	0	37484	
7464	0	39752	
7465	0	41840	
7466	0	44120	
7467	0	45896	
7468	0	47024	
7469	0	48080	
7470	0	49416	
7471	0	51224	
7472	0	53188	
7473	0	55368	
7474	0	57896	
7475	0	60736	
7476	0	63072	
7477	0	64584	
7478	0	65496	
7479	0	65535	
7480	0	65535	
7481	0	65535	
7482	0	65535	
7483	0	65535	
7484	0	65535	
7485	0	65535	
7486	0	65535	
7487	0	65535	
7488	0	58856	
7489	0	53532	
7490	0	49160	
7491	0	45444	
7492	0	42044	
7493	0	39008	
7494	0	36268	
7495	0	34388	
7496	0	33436	
7497	0	33276	
7498	0	32752	
7499	0	32304	
7500	0	31904	
7501	0	32065	
7502	0	32656	
7503	0	33232	
7504	0	33888	
7505	0	34720	
7506	0	35000	
7507	0	34584	
7508	0	33460	
7509	0	31956	
7510	0	30368	
7511	0	28868	
7512	0	27776	
7513	0	27020	
7514	0	26493	
7515	0	26428	
7516	0	26652	
7517	0	26708	
7518	0	26420	
7519	0	26496	
7520	0	27044	
7521	0	28042	
7522	0	29388	
7523	0	30912	
7524	0	32312	
7525	0	33376	
7526	0	34156	
7527	0	33732	
7528	0	32200	
7529	0	30596	
7530	0	29300	
7531	0	28208	
7532	0	27068	
7533	0	26640	
7534	0	26680	
7535	0	27064	
7536	0	27648	
7537	0	27904	
7538	0	27732	
7539	0	27488	
7540	0	27380	
7541	0	27536	
7542	0	28010	
7543	0	28628	
7544	0	29392	
7545	0	30274	
7546	0	30768	
7547	0	30540	
7548	0	29690	
7549	0	28424	
7550	0	27584	
7551	0	27456	
7552	0	27354	
7553	0	26604	
7554	0	26472	
7555	0	26952	
7556	0	27648	
7557	0	27924	
7558	0	27996	
7559	0	28120	
7560	0	28248	
7561	0	28560	
7562	0	29264	
7563	0	29872	
7564	0	30688	
7565	0	31664	
7566	0	32312	
7567	0	32316	
7568	0	31420	
7569	0	30452	
7570	0	29372	
7571	0	28372	
7572	0	27468	
7573	0	26936	
7574	0	26932	
7575	0	27442	
7576	0	28133	
7577	0	28420	
7578	0	28532	
7579	0	28684	
7580	0	28988	
7581	0	29488	
7582	0	30316	
7583	0	31324	
7584	0	32336	
7585	0	33224	
7586	0	33410	
7587	0	32616	
7588	0	31432	
7589	0	30356	
7590	0	29704	
7591	0	29244	
7592	0	28592	
7593	0	28072	
7594	0	27826	
7595	0	28046	
7596	0	28404	
7597	0	28364	
7598	0	28266	
7599	0	28640	
7600	0	29064	
7601	0	29598	
7602	0	30792	
7603	0	32040	
7604	0	32856	
7605	0	34140	
7606	0	34736	
7607	0	34368	
7608	0	33404	
7609	0	31948	
7610	0	30360	
7611	0	29121	
7612	0	28216	
7613	0	27884	
7614	0	27948	
7615	0	28570	
7616	0	29386	
7617	0	29888	
7618	0	30316	
7619	0	30704	
7620	0	31092	
7621	0	31370	
7622	0	31688	
7623	0	32352	
7624	0	33256	
7625	0	34092	
7626	0	34416	
7627	0	34012	
7628	0	32868	
7629	0	31536	
7630	0	30200	
7631	0	29260	
7632	0	28964	
7633	0	29176	
7634	0	29730	
7635	0	30429	
7636	0	30848	
7637	0	30996	
7638	0	31228	
7639	0	31442	
7640	0	31552	
7641	0	31956	
7642	0	32772	
7643	0	33796	
7644	0	34960	
7645	0	35904	
7646	0	36256	
7647	0	35816	
7648	0	34960	
7649	0	33740	
7650	0	32344	
7651	0	31032	
7652	0	30080	
7653	0	29632	
7654	0	29492	
7655	0	30120	
7656	0	30608	
7657	0	30600	
7658	0	30432	
7659	0	30656	
7660	0	31656	
7661	0	32732	
7662	0	33752	
7663	0	34840	
7664	0	36192	
7665	0	37112	
7666	0	37484	
7667	0	36740	
7668	0	35312	
7669	0	33944	
7670	0	33160	
7671	0	32648	
7672	0	32048	
7673	0	31900	
7674	0	31852	
7675	0	32116	
7676	0	32808	
7677	0	32972	
7678	0	32608	
7679	0	32612	
7680	0	33112	
7681	0	33664	
7682	0	34008	
7683	0	34760	
7684	0	35964	
7685	0	37040	
7686	0	37488	
7687	0	37256	
7688	0	36404	
7689	0	35608	
7690	0	34816	
7691	0	33808	
7692	0	33128	
7693	0	33112	
7694	0	33248	
7695	0	33656	
7696	0	34216	
7697	0	34360	
7698	0	34408	
7699	0	34912	
7700	0	35592	
7701	0	36240	
7702	0	36836	
7703	0	37632	
7704	0	38808	
7705	0	40012	
7706	0	40704	
7707	0	40312	
7708	0	39104	
7709	0	37968	
7710	0	36444	
7711	0	35128	
7712	0	34476	
7713	0	34396	
7714	0	34434	
7715	0	34664	
7716	0	34824	
7717	0	34500	
7718	0	34156	
7719	0	34552	
7720	0	35300	
7721	0	36196	
7722	0	37352	
7723	0	38600	
7724	0	39776	
7725	0	40684	
7726	0	41072	
7727	0	40648	
7728	0	39636	
7729	0	38576	
7730	0	37676	
7731	0	36588	
7732	0	35640	
7733	0	35100	
7734	0	34676	
7735	0	34704	
7736	0	35040	
7737	0	34984	
7738	0	34704	
7739	0	34584	
7740	0	34680	
7741	0	35060	
7742	0	35996	
7743	0	37352	
7744	0	38984	
7745	0	40288	
7746	0	41248	
7747	0	41324	
7748	0	40276	
7749	0	38664	
7750	0	37152	
7751	0	35648	
7752	0	34408	
7753	0	33496	
7754	0	32960	
7755	0	32824	
7756	0	33208	
7757	0	33504	
7758	0	33280	
7759	0	33384	
7760	0	33752	
7761	0	34156	
7762	0	34916	
7763	0	35656	
7764	0	36340	
7765	0	37268	
7766	0	38360	
7767	0	37776	
7768	0	36384	
7769	0	34700	
7770	0	33352	
7771	0	31828	
7772	0	30496	
7773	0	29500	
7774	0	29068	
7775	0	29216	
7776	0	29736	
7777	0	29624	
7778	0	29264	
7779	0	28984	
7780	0	29216	
7781	0	29904	
7782	0	30884	
7783	0	31948	
7784	0	32936	
7785	0	33770	
7786	0	33896	
7787	0	33040	
7788	0	31352	
7789	0	29700	
7790	0	28444	
7791	0	27457	
7792	0	27068	
7793	0	26672	
7794	0	26960	
7795	0	27832	
7796	0	28736	
7797	0	29264	
7798	0	29460	
7799	0	29476	
7800	0	29504	
7801	0	29600	
7802	0	29844	
7803	0	30426	
7804	0	31008	
7805	0	31576	
7806	0	32024	
7807	0	31796	
7808	0	30602	
7809	0	29016	
7810	0	27648	
7811	0	26720	
7812	0	26256	
7813	0	25920	
7814	0	26024	
7815	0	26452	
7816	0	27272	
7817	0	27660	
7818	0	27744	
7819	0	27884	
7820	0	28060	
7821	0	28400	
7822	0	28812	
7823	0	29868	
7824	0	31456	
7825	0	31924	
7826	0	31672	
7827	0	30900	
7828	0	29924	
7829	0	29204	
7830	0	28584	
7831	0	28138	
7832	0	28152	
7833	0	28068	
7834	0	28288	
7835	0	28656	
7836	0	29040	
7837	0	29112	
7838	0	28632	
7839	0	28656	
7840	0	29128	
7841	0	29576	
7842	0	30224	
7843	0	31280	
7844	0	32492	
7845	0	33018	
7846	0	33212	
7847	0	32580	
7848	0	31556	
7849	0	30208	
7850	0	28712	
7851	0	27628	
7852	0	26988	
7853	0	26932	
7854	0	27208	
7855	0	27772	
7856	0	28700	
7857	0	29564	
7858	0	29788	
7859	0	30136	
7860	0	30528	
7861	0	30956	
7862	0	31800	
7863	0	32212	
7864	0	32720	
7865	0	33332	
7866	0	33812	
7867	0	33388	
7868	0	32026	
7869	0	30544	
7870	0	29576	
7871	0	28940	
7872	0	28552	
7873	0	28312	
7874	0	28412	
7875	0	28888	
7876	0	29404	
7877	0	29384	
7878	0	29030	
7879	0	29148	
7880	0	29588	
7881	0	29968	
7882	0	30690	
7883	0	31868	
7884	0	33116	
7885	0	33956	
7886	0	34616	
7887	0	34536	
7888	0	33808	
7889	0	32760	
7890	0	31864	
7891	0	31104	
7892	0	29748	
7893	0	28976	
7894	0	28736	
7895	0	28952	
7896	0	29442	
7897	0	29540	
7898	0	29452	
7899	0	29452	
7900	0	29816	
7901	0	30232	
7902	0	30536	
7903	0	31520	
7904	0	33000	
7905	0	34088	
7906	0	34384	
7907	0	34152	
7908	0	33432	
7909	0	32630	
7910	0	31608	
7911	0	30424	
7912	0	29518	
7913	0	29048	
7914	0	29152	
7915	0	29688	
7916	0	30224	
7917	0	30212	
7918	0	29668	
7919	0	29660	
7920	0	30036	
7921	0	30724	
7922	0	31392	
7923	0	32004	
7924	0	32452	
7925	0	33212	
7926	0	33576	
7927	0	33376	
7928	0	32528	
7929	0	31396	
7930	0	30328	
7931	0	29428	
7932	0	29056	
7933	0	29336	
7934	0	29988	
7935	0	30456	
7936	0	30752	
7937	0	30748	
7938	0	30572	
7939	0	30620	
7940	0	30744	
7941	0	31208	
7942	0	32104	
7943	0	33512	
7944	0	33872	
7945	0	34616	
7946	0	35008	
7947	0	34684	
7948	0	33668	
7949	0	32464	
7950	0	31396	
7951	0	30412	
7952	0	29904	
7953	0	29824	
7954	0	29674	
7955	0	29570	
7956	0	29540	
7957	0	29256	
7958	0	29002	
7959	0	29096	
7960	0	29824	
7961	0	30924	
7962	0	32252	
7963	0	33928	
7964	0	35456	
7965	0	36536	
7966	0	37120	
7967	0	36564	
7968	0	35212	
7969	0	33436	
7970	0	31774	
7971	0	30144	
7972	0	29132	
7973	0	29080	
7974	0	29452	
7975	0	29912	
7976	0	30536	
7977	0	30410	
7978	0	29978	
7979	0	29684	
7980	0	29720	
7981	0	30012	
7982	0	30760	
7983	0	31504	
7984	0	32784	
7985	0	35104	
7986	0	36184	
7987	0	35948	
7988	0	35296	
7989	0	34528	
7990	0	33772	
7991	0	32764	
7992	0	32040	
7993	0	31930	
7994	0	31904	
7995	0	31806	
7996	0	31972	
7997	0	31872	
7998	0	31600	
7999	0	31536	
8000	0	31532	
8001	0	32004	
8002	0	32794	
8003	0	33936	
8004	0	34672	
8005	0	35164	
8006	0	35520	
8007	0	34908	
8008	0	33740	
8009	0	32320	
8010	0	31292	
8011	0	30456	
8012	0	29876	
8013	0	29636	
8014	0	29844	
8015	0	30528	
8016	0	31064	
8017	0	31368	
8018	0	31432	
8019	0	31776	
8020	0	31952	
8021	0	32496	
8022	0	33176	
8023	0	34104	
8024	0	34864	
8025	0	35336	
8026	0	35424	
8027	0	34424	
8028	0	32708	
8029	0	31088	
8030	0	29604	
8031	0	28712	
8032	0	28228	
8033	0	28148	
8034	0	28672	
8035	0	29632	
8036	0	30808	
8037	0	31402	
8038	0	31328	
8039	0	31380	
8040	0	31520	
8041	0	32040	
8042	0	33296	
8043	0	33336	
8044	0	34052	
8045	0	34920	
8046	0	35124	
8047	0	34868	
8048	0	34032	
8049	0	32800	
8050	0	31640	
8051	0	30408	
8052	0	29632	
8053	0	29508	
8054	0	29698	
8055	0	30228	
8056	0	30712	
8057	0	31026	
8058	0	31152	
8059	0	31440	
8060	0	31968	
8061	0	32488	
8062	0	33504	
8063	0	34644	
8064	0	35640	
8065	0	36513	
8066	0	36992	
8067	0	36552	
8068	0	36104	
8069	0	35096	
8070	0	33876	
8071	0	32812	
8072	0	32002	
8073	0	31344	
8074	0	30818	
8075	0	30764	
8076	0	31026	
8077	0	31064	
8078	0	30848	
8079	0	30788	
8080	0	30760	
8081	0	31128	
8082	0	31604	
8083	0	32140	
8084	0	32640	
8085	0	33100	
8086	0	33696	
8087	0	33332	
8088	0	32736	
8089	0	32432	
8090	0	31352	
8091	0	30074	
8092	0	29234	
8093	0	29140	
8094	0	29696	
8095	0	30776	
8096	0	31840	
8097	0	32640	
8098	0	34040	
8099	0	35476	
8100	0	36512	
8101	0	37832	
8102	0	39728	
8103	0	42056	
8104	0	44872	
8105	0	47944	
8106	0	51376	
8107	0	54496	
8108	0	56972	
8109	0	59032	
8110	0	60864	
8111	0	62512	
8112	0	63760	
8113	0	64624	
8114	0	65400	
8115	0	65535	
8116	0	65535	
8117	0	65535	
8118	0	65535	
8119	0	65535	
8120	0	65535	
8121	0	65535	
8122	0	65535	
8123	0	64996	
8124	0	60752	
8125	0	57584	
8126	0	54476	
8127	0	50912	
8128	0	47044	
8129	0	43472	
8130	0	40004	
8131	0	37056	
8132	0	34578	
8133	0	32674	
8134	0	31716	
8135	0	31460	
8136	0	31249	
8137	0	30752	
8138	0	30456	
8139	0	30168	
8140	0	30170	
8141	0	30568	
8142	0	31264	
8143	0	32232	
8144	0	33394	
8145	0	34368	
8146	0	34796	
8147	0	34084	
8148	0	32736	
8149	0	31136	
8150	0	29676	
8151	0	28224	
8152	0	26816	
8153	0	25584	
8154	0	25048	
8155	0	25802	
8156	0	27056	
8157	0	26512	
8158	0	25860	
8159	0	25852	
8160	0	26200	
8161	0	27024	
8162	0	28080	
8163	0	28836	
8164	0	29696	
8165	0	30536	
8166	0	30896	
8167	0	30664	
8168	0	29848	
8169	0	28780	
8170	0	27620	
8171	0	26414	
8172	0	25996	
8173	0	25520	
8174	0	25088	
8175	0	25412	
8176	0	26272	
8177	0	26620	
8178	0	26312	
8179	0	26669	
8180	0	27128	
8181	0	27952	
8182	0	29352	
8183	0	30860	
8184	0	31852	
8185	0	32588	
8186	0	33144	
8187	0	32700	
8188	0	31412	
8189	0	29972	
8190	0	28932	
8191	0	28000	
8192	0	27020	
8193	0	26844	
8194	0	27112	
8195	0	27532	
8196	0	28086	
8197	0	28344	
8198	0	28444	
8199	0	28658	
8200	0	29020	
8201	0	29256	
8202	0	29568	
8203	0	30312	
8204	0	31352	
8205	0	32424	
8206	0	33240	
8207	0	33392	
8208	0	32908	
8209	0	32148	
8210	0	31348	
8211	0	30560	
8212	0	29624	
8213	0	28752	
8214	0	28404	
8215	0	28160	
8216	0	27752	
8217	0	27208	
8218	0	26840	
8219	0	26500	
8220	0	26932	
8221	0	27872	
8222	0	29072	
8223	0	30384	
8224	0	31920	
8225	0	33452	
8226	0	34484	
8227	0	34354	
8228	0	33264	
8229	0	31808	
8230	0	30068	
8231	0	28274	
8232	0	27040	
8233	0	27000	
8234	0	27628	
8235	0	28544	
8236	0	29216	
8237	0	29192	
8238	0	29012	
8239	0	28808	
8240	0	28948	
8241	0	29056	
8242	0	29388	
8243	0	30176	
8244	0	31140	
8245	0	32434	
8246	0	33064	
8247	0	32656	
8248	0	31936	
8249	0	30800	
8250	0	29680	
8251	0	28772	
8252	0	28240	
8253	0	27022	
8254	0	26664	
8255	0	27088	
8256	0	27504	
8257	0	27560	
8258	0	27352	
8259	0	27256	
8260	0	27424	
8261	0	27804	
8262	0	28300	
8263	0	28992	
8264	0	29856	
8265	0	30900	
8266	0	31832	
8267	0	31706	
8268	0	31052	
8269	0	29952	
8270	0	28752	
8271	0	28088	
8272	0	27096	
8273	0	26544	
8274	0	26132	
8275	0	26104	
8276	0	26256	
8277	0	26208	
8278	0	25832	
8279	0	25772	
8280	0	26088	
8281	0	26784	
8282	0	27924	
8283	0	29192	
8284	0	30128	
8285	0	30872	
8286	0	31016	
8287	0	30540	
8288	0	30032	
8289	0	29504	
8290	0	28776	
8291	0	28056	
8292	0	27260	
8293	0	26508	
8294	0	26188	
8295	0	26476	
8296	0	26752	
8297	0	26820	
8298	0	26626	
8299	0	26772	
8300	0	27584	
8301	0	28542	
8302	0	29596	
8303	0	30468	
8304	0	30964	
8305	0	31440	
8306	0	31610	
8307	0	31116	
8308	0	30248	
8309	0	29312	
8310	0	28352	
8311	0	27532	
8312	0	26988	
8313	0	26652	
8314	0	26792	
8315	0	27492	
8316	0	28256	
8317	0	28528	
8318	0	28492	
8319	0	28488	
8320	0	28714	
8321	0	29356	
8322	0	30240	
8323	0	31412	
8324	0	32640	
8325	0	33356	
8326	0	33616	
8327	0	33426	
8328	0	33068	
8329	0	32652	
8330	0	32112	
8331	0	31872	
8332	0	32256	
8333	0	32836	
8334	0	32924	
8335	0	33064	
8336	0	33324	
8337	0	33204	
8338	0	32628	
8339	0	32608	
8340	0	33064	
8341	0	33716	
8342	0	34272	
8343	0	34776	
8344	0	35604	
8345	0	35920	
8346	0	36028	
8347	0	35652	
8348	0	34708	
8349	0	33536	
8350	0	32632	
8351	0	31800	
8352	0	31736	
8353	0	31952	
8354	0	31872	
8355	0	32216	
8356	0	32588	
8357	0	32848	
8358	0	33068	
8359	0	33372	
8360	0	33784	
8361	0	34576	
8362	0	35632	
8363	0	36640	
8364	0	37184	
8365	0	37872	
8366	0	38288	
8367	0	37776	
8368	0	36528	
8369	0	35584	
8370	0	34544	
8371	0	34004	
8372	0	33524	
8373	0	33424	
8374	0	33768	
8375	0	34404	
8376	0	35154	
8377	0	35384	
8378	0	35192	
8379	0	35160	
8380	0	34992	
8381	0	34976	
8382	0	35336	
8383	0	35992	
8384	0	36730	
8385	0	36828	
8386	0	36864	
8387	0	35856	
8388	0	35020	
8389	0	34336	
8390	0	33768	
8391	0	33400	
8392	0	33184	
8393	0	32868	
8394	0	32896	
8395	0	33292	
8396	0	33818	
8397	0	33900	
8398	0	33800	
8399	0	33840	
8400	0	34720	
8401	0	35028	
8402	0	35528	
8403	0	36124	
8404	0	36520	
8405	0	36688	
8406	0	36764	
8407	0	36100	
8408	0	35240	
8409	0	34336	
8410	0	33112	
8411	0	31872	
8412	0	30968	
8413	0	30168	
8414	0	29336	
8415	0	28988	
8416	0	28872	
8417	0	28284	
8418	0	28176	
8419	0	28160	
8420	0	27964	
8421	0	28296	
8422	0	28698	
8423	0	29144	
8424	0	29496	
8425	0	29664	
8426	0	29120	
8427	0	27740	
8428	0	26680	
8429	0	25952	
8430	0	25402	
8431	0	24828	
8432	0	24372	
8433	0	24181	
8434	0	23904	
8435	0	23910	
8436	0	24248	
8437	0	24296	
8438	0	24336	
8439	0	24756	
8440	0	25304	
8441	0	25688	
8442	0	26500	
8443	0	26948	
8444	0	27168	
8445	0	27412	
8446	0	27500	
8447	0	27196	
8448	0	27336	
8449	0	27116	
8450	0	26256	
8451	0	25384	
8452	0	24760	
8453	0	24448	
8454	0	24344	
8455	0	24372	
8456	0	24778	
8457	0	24848	
8458	0	24464	
8459	0	24452	
8460	0	24972	
8461	0	25752	
8462	0	26204	
8463	0	26608	
8464	0	26680	
8465	0	26972	
8466	0	26752	
8467	0	26156	
8468	0	24956	
8469	0	23861	
8470	0	23216	
8471	0	22786	
8472	0	22720	
8473	0	22584	
8474	0	22292	
8475	0	22280	
8476	0	22696	
8477	0	23322	
8478	0	23744	
8479	0	24268	
8480	0	24704	
8481	0	25364	
8482	0	25704	
8483	0	25820	
8484	0	25804	
8485	0	25452	
8486	0	24620	
8487	0	23940	
8488	0	23812	
8489	0	24016	
8490	0	23956	
8491	0	23616	
8492	0	23520	
8493	0	22984	
8494	0	22840	
8495	0	22992	
8496	0	22944	
8497	0	22920	
8498	0	23144	
8499	0	23384	
8500	0	23800	
8501	0	24420	
8502	0	25124	
8503	0	25672	
8504	0	26140	
8505	0	26528	
8506	0	26748	
8507	0	26984	
8508	0	26938	
8509	0	26840	
8510	0	26956	
8511	0	26424	
8512	0	26200	
8513	0	26372	
8514	0	26496	
8515	0	26468	
8516	0	26188	
8517	0	25748	
8518	0	25682	
8519	0	25492	
8520	0	24896	
8521	0	24460	
8522	0	24700	
8523	0	25392	
8524	0	26188	
8525	0	27048	
8526	0	27464	
8527	0	27872	
8528	0	28176	
8529	0	28000	
8530	0	27376	
8531	0	26524	
8532	0	25696	
8533	0	25288	
8534	0	25068	
8535	0	25036	
8536	0	24984	
8537	0	24768	
8538	0	24944	
8539	0	25380	
8540	0	26025	
8541	0	26736	
8542	0	27576	
8543	0	27852	
8544	0	27840	
8545	0	27816	
8546	0	27648	
8547	0	27428	
8548	0	27210	
8549	0	26804	
8550	0	26484	
8551	0	25792	
8552	0	25176	
8553	0	24864	
8554	0	24724	
8555	0	25090	
8556	0	25474	
8557	0	25612	
8558	0	25922	
8559	0	26348	
8560	0	26592	
8561	0	27136	
8562	0	27388	
8563	0	27360	
8564	0	27408	
8565	0	27824	
8566	0	27744	
8567	0	27472	
8568	0	27208	
8569	0	26868	
8570	0	26292	
8571	0	25948	
8572	0	25828	
8573	0	25488	
8574	0	24898	
8575	0	24362	
8576	0	24124	
8577	0	24442	
8578	0	24960	
8579	0	25224	
8580	0	25564	
8581	0	26300	
8582	0	26764	
8583	0	27368	
8584	0	27824	
8585	0	27772	
8586	0	27460	
8587	0	26920	
8588	0	26372	
8589	0	26092	
8590	0	25712	
8591	0	25360	
8592	0	24596	
8593	0	24256	
8594	0	24300	
8595	0	24364	
