# OpenSignals Text File Format. Version 1
# {"00:07:80:0F:31:47": {"position": 0, "device": "biosignalsplux", "device name": "00:07:80:0F:31:47", "device connection": "BTH00:07:80:0F:31:47", "sampling rate": 1000, "resolution": [16], "firmware version": 775, "comments": "", "keywords": "", "mode": 0, "sync interval": 2, "date": "2023-2-6", "time": "10:58:39.431", "channels": [1], "sensor": ["ECG"], "label": ["CH1"], "column": ["nSeq", "DI", "CH1"], "special": [{"SpO2": [80, 40, 5, 4, 3, 3]}, {"SpO2": [80, 40, 5, 4, 3, 3]}, {"SpO2": [80, 40, 5, 4, 3, 3]}, {"SpO2": [80, 40, 5, 4, 3, 3]}, {"SpO2": [80, 40, 5, 4, 3, 3]}, {"SpO2": [80, 40, 5, 4, 3, 3]}, {"SpO2": [80, 40, 5, 4, 3, 3]}, {"SpO2": [80, 40, 5, 4, 3, 3]}], "digital IO": [0, 1], "sleeve color": [""]}}
# EndOfHeader
0	0	31400	
1	0	31796	
2	0	32320	
3	0	32784	
4	0	32968	
5	0	32956	
6	0	32944	
7	0	33056	
8	0	33060	
9	0	32840	
10	0	32712	
11	0	32628	
12	0	32616	
13	0	32648	
14	0	32604	
15	0	32484	
16	0	32386	
17	0	32344	
18	0	32240	
19	0	32084	
20	0	31816	
21	0	31592	
22	0	31424	
23	0	31092	
24	0	30644	
25	0	30440	
26	0	30484	
27	0	30724	
28	0	30984	
29	0	31048	
30	0	31284	
31	0	31896	
32	0	32460	
33	0	32892	
34	0	33060	
35	0	33128	
36	0	33088	
37	0	33144	
38	0	33272	
39	0	33248	
40	0	33108	
41	0	32988	
42	0	32860	
43	0	32850	
44	0	32824	
45	0	32744	
46	0	32698	
47	0	32608	
48	0	32448	
49	0	32400	
50	0	32368	
51	0	32264	
52	0	32288	
53	0	32382	
54	0	32288	
55	0	32176	
56	0	32184	
57	0	32144	
58	0	32136	
59	0	32152	
60	0	32194	
61	0	32330	
62	0	32300	
63	0	32276	
64	0	32248	
65	0	32052	
66	0	31760	
67	0	31546	
68	0	31616	
69	0	31868	
70	0	32152	
71	0	32464	
72	0	32788	
73	0	33036	
74	0	33260	
75	0	33512	
76	0	33556	
77	0	33448	
78	0	33216	
79	0	32736	
80	0	32528	
81	0	32600	
82	0	32728	
83	0	33040	
84	0	33080	
85	0	32888	
86	0	32588	
87	0	32436	
88	0	32376	
89	0	32026	
90	0	31516	
91	0	31260	
92	0	31436	
93	0	31824	
94	0	32168	
95	0	32248	
96	0	32304	
97	0	32332	
98	0	32392	
99	0	32616	
100	0	32984	
101	0	33396	
102	0	33674	
103	0	34104	
104	0	34608	
105	0	34808	
106	0	34740	
107	0	34500	
108	0	34212	
109	0	34016	
110	0	34064	
111	0	34244	
112	0	34344	
113	0	34456	
114	0	34216	
115	0	33808	
116	0	33496	
117	0	33376	
118	0	33280	
119	0	33308	
120	0	33300	
121	0	33276	
122	0	33152	
123	0	32936	
124	0	32728	
125	0	32556	
126	0	32448	
127	0	32412	
128	0	32604	
129	0	32954	
130	0	33284	
131	0	33644	
132	0	34042	
133	0	34160	
134	0	34100	
135	0	33804	
136	0	33376	
137	0	33060	
138	0	32856	
139	0	33040	
140	0	33528	
141	0	33820	
142	0	34008	
143	0	34268	
144	0	34204	
145	0	33856	
146	0	33524	
147	0	33172	
148	0	33072	
149	0	32996	
150	0	32864	
151	0	32952	
152	0	33212	
153	0	33664	
154	0	34192	
155	0	34700	
156	0	35060	
157	0	35272	
158	0	35360	
159	0	35324	
160	0	35196	
161	0	34992	
162	0	34932	
163	0	34832	
164	0	34472	
165	0	33972	
166	0	33340	
167	0	32682	
168	0	32072	
169	0	31812	
170	0	31996	
171	0	32696	
172	0	33868	
173	0	34889	
174	0	35548	
175	0	35928	
176	0	36186	
177	0	36296	
178	0	36296	
179	0	36033	
180	0	35688	
181	0	35112	
182	0	34456	
183	0	33874	
184	0	33280	
185	0	32744	
186	0	32308	
187	0	32184	
188	0	32476	
189	0	33292	
190	0	34376	
191	0	35156	
192	0	35584	
193	0	35856	
194	0	36012	
195	0	35984	
196	0	35772	
197	0	35368	
198	0	35076	
199	0	34704	
200	0	34324	
201	0	33860	
202	0	33840	
203	0	34080	
204	0	34372	
205	0	34640	
206	0	34860	
207	0	34996	
208	0	34984	
209	0	34840	
210	0	34664	
211	0	34490	
212	0	34436	
213	0	34384	
214	0	34236	
215	0	33976	
216	0	33760	
217	0	33456	
218	0	32980	
219	0	32784	
220	0	32772	
221	0	32804	
222	0	32760	
223	0	32640	
224	0	32440	
225	0	32314	
226	0	32140	
227	0	32132	
228	0	32236	
229	0	32384	
230	0	32492	
231	0	32562	
232	0	32764	
233	0	33092	
234	0	33424	
235	0	33516	
236	0	33600	
237	0	33600	
238	0	33332	
239	0	33048	
240	0	32804	
241	0	32340	
242	0	31824	
243	0	31648	
244	0	31844	
245	0	32052	
246	0	32016	
247	0	31748	
248	0	31576	
249	0	31674	
250	0	31802	
251	0	31780	
252	0	31808	
253	0	31820	
254	0	31752	
255	0	31538	
256	0	31272	
257	0	30880	
258	0	30528	
259	0	30400	
260	0	30528	
261	0	30592	
262	0	30520	
263	0	30584	
264	0	30828	
265	0	31104	
266	0	31288	
267	0	31356	
268	0	31384	
269	0	31476	
270	0	31620	
271	0	31556	
272	0	31364	
273	0	31220	
274	0	31040	
275	0	30812	
276	0	30616	
277	0	30692	
278	0	30940	
279	0	31088	
280	0	31240	
281	0	31512	
282	0	31612	
283	0	31528	
284	0	31048	
285	0	30612	
286	0	30458	
287	0	30658	
288	0	31088	
289	0	31740	
290	0	32240	
291	0	32368	
292	0	32260	
293	0	32124	
294	0	31930	
295	0	31616	
296	0	31100	
297	0	30708	
298	0	30644	
299	0	30708	
300	0	30828	
301	0	31096	
302	0	31412	
303	0	31428	
304	0	31028	
305	0	30584	
306	0	30424	
307	0	30624	
308	0	31224	
309	0	32016	
310	0	32724	
311	0	33008	
312	0	33048	
313	0	33000	
314	0	32804	
315	0	32460	
316	0	32032	
317	0	31756	
318	0	31596	
319	0	31352	
320	0	31344	
321	0	31376	
322	0	31296	
323	0	31108	
324	0	30528	
325	0	29848	
326	0	29324	
327	0	28997	
328	0	29040	
329	0	29488	
330	0	30296	
331	0	31240	
332	0	32048	
333	0	32652	
334	0	32864	
335	0	32616	
336	0	32496	
337	0	32528	
338	0	32560	
339	0	32660	
340	0	32722	
341	0	32834	
342	0	33044	
343	0	33148	
344	0	32996	
345	0	32748	
346	0	32536	
347	0	32248	
348	0	31976	
349	0	31964	
350	0	32048	
351	0	32120	
352	0	32460	
353	0	32712	
354	0	32572	
355	0	32276	
356	0	32056	
357	0	31776	
358	0	31624	
359	0	31674	
360	0	31968	
361	0	32372	
362	0	32616	
363	0	32732	
364	0	32660	
365	0	32384	
366	0	32036	
367	0	31632	
368	0	31332	
369	0	31104	
370	0	30916	
371	0	30924	
372	0	31112	
373	0	31490	
374	0	31920	
375	0	32112	
376	0	32084	
377	0	31988	
378	0	31872	
379	0	31840	
380	0	31920	
381	0	32052	
382	0	32270	
383	0	32536	
384	0	32616	
385	0	32548	
386	0	32516	
387	0	32180	
388	0	31976	
389	0	31988	
390	0	31812	
391	0	31680	
392	0	31792	
393	0	32016	
394	0	31936	
395	0	31548	
396	0	31012	
397	0	30684	
398	0	30752	
399	0	30932	
400	0	30884	
401	0	31204	
402	0	31968	
403	0	32536	
404	0	32616	
405	0	32332	
406	0	31952	
407	0	31800	
408	0	31496	
409	0	31328	
410	0	31420	
411	0	31372	
412	0	31112	
413	0	30952	
414	0	30844	
415	0	30748	
416	0	30476	
417	0	30288	
418	0	30600	
419	0	30964	
420	0	31116	
421	0	31420	
422	0	31912	
423	0	32216	
424	0	32004	
425	0	31564	
426	0	31561	
427	0	32192	
428	0	32836	
429	0	33044	
430	0	32744	
431	0	32424	
432	0	32666	
433	0	33348	
434	0	34052	
435	0	34196	
436	0	33996	
437	0	33464	
438	0	32804	
439	0	32080	
440	0	31332	
441	0	30812	
442	0	30784	
443	0	30976	
444	0	31440	
445	0	32080	
446	0	32448	
447	0	32456	
448	0	32576	
449	0	32896	
450	0	33168	
451	0	33116	
452	0	33036	
453	0	32796	
454	0	31956	
455	0	30936	
456	0	30280	
457	0	29924	
458	0	30124	
459	0	30832	
460	0	31868	
461	0	32984	
462	0	33984	
463	0	34548	
464	0	34760	
465	0	34632	
466	0	34160	
467	0	33516	
468	0	33064	
469	0	32812	
470	0	32612	
471	0	32436	
472	0	32186	
473	0	32012	
474	0	31836	
475	0	31516	
476	0	31160	
477	0	30928	
478	0	30544	
479	0	30072	
480	0	29776	
481	0	29370	
482	0	28776	
483	0	28396	
484	0	28528	
485	0	29136	
486	0	29856	
487	0	30472	
488	0	31592	
489	0	32936	
490	0	33968	
491	0	34636	
492	0	34984	
493	0	35364	
494	0	35972	
495	0	36312	
496	0	36157	
497	0	35832	
498	0	35628	
499	0	35372	
500	0	35080	
501	0	34684	
502	0	34320	
503	0	33684	
504	0	32572	
505	0	31132	
506	0	29868	
507	0	28748	
508	0	27648	
509	0	26856	
510	0	26544	
511	0	26828	
512	0	27732	
513	0	28888	
514	0	29800	
515	0	30404	
516	0	30944	
517	0	31280	
518	0	31368	
519	0	31212	
520	0	31352	
521	0	32116	
522	0	33152	
523	0	33600	
524	0	33248	
525	0	32560	
526	0	32170	
527	0	32024	
528	0	31788	
529	0	31840	
530	0	32284	
531	0	32916	
532	0	33196	
533	0	33224	
534	0	33292	
535	0	33281	
536	0	32824	
537	0	32170	
538	0	31688	
539	0	31784	
540	0	32436	
541	0	33364	
542	0	34180	
543	0	34432	
544	0	34184	
545	0	33976	
546	0	33708	
547	0	33304	
548	0	32880	
549	0	32880	
550	0	33640	
551	0	34312	
552	0	34256	
553	0	33632	
554	0	32688	
555	0	31928	
556	0	31448	
557	0	31272	
558	0	31402	
559	0	31528	
560	0	31724	
561	0	32324	
562	0	32792	
563	0	33018	
564	0	33008	
565	0	32888	
566	0	32548	
567	0	31946	
568	0	31544	
569	0	31316	
570	0	31182	
571	0	30650	
572	0	30192	
573	0	30220	
574	0	30604	
575	0	30808	
576	0	30464	
577	0	29592	
578	0	28472	
579	0	27504	
580	0	26708	
581	0	26360	
582	0	27066	
583	0	28874	
584	0	31284	
585	0	34042	
586	0	36556	
587	0	38336	
588	0	39280	
589	0	39532	
590	0	39328	
591	0	39000	
592	0	38848	
593	0	38656	
594	0	38124	
595	0	37520	
596	0	36740	
597	0	35832	
598	0	35064	
599	0	34404	
600	0	33836	
601	0	33356	
602	0	33136	
603	0	33216	
604	0	33496	
605	0	33544	
606	0	33688	
607	0	33780	
608	0	33328	
609	0	32756	
610	0	32096	
611	0	31610	
612	0	30796	
613	0	29408	
614	0	28176	
615	0	27300	
616	0	26560	
617	0	26024	
618	0	26360	
619	0	27906	
620	0	30048	
621	0	31905	
622	0	33104	
623	0	33924	
624	0	34580	
625	0	34764	
626	0	34688	
627	0	34488	
628	0	33928	
629	0	32912	
630	0	31848	
631	0	30606	
632	0	28900	
633	0	27422	
634	0	26426	
635	0	25410	
636	0	23948	
637	0	22872	
638	0	22640	
639	0	23268	
640	0	24348	
641	0	25594	
642	0	27336	
643	0	30032	
644	0	33642	
645	0	36848	
646	0	38704	
647	0	39920	
648	0	41008	
649	0	41528	
650	0	41348	
651	0	40824	
652	0	40584	
653	0	40676	
654	0	40228	
655	0	39580	
656	0	38944	
657	0	38208	
658	0	37120	
659	0	35816	
660	0	34564	
661	0	33552	
662	0	32740	
663	0	32268	
664	0	32026	
665	0	32148	
666	0	32376	
667	0	32276	
668	0	31984	
669	0	31960	
670	0	32036	
671	0	31788	
672	0	31420	
673	0	31200	
674	0	31112	
675	0	31170	
676	0	31460	
677	0	31968	
678	0	32592	
679	0	33188	
680	0	33376	
681	0	33424	
682	0	33276	
683	0	33052	
684	0	33132	
685	0	33492	
686	0	33368	
687	0	32464	
688	0	31772	
689	0	31308	
690	0	30900	
691	0	30568	
692	0	30620	
693	0	30924	
694	0	30588	
695	0	29392	
696	0	27754	
697	0	26116	
698	0	25018	
699	0	24728	
700	0	25360	
701	0	27144	
702	0	30264	
703	0	33544	
704	0	36428	
705	0	38388	
706	0	39624	
707	0	40032	
708	0	39456	
709	0	38680	
710	0	38088	
711	0	37220	
712	0	36120	
713	0	35376	
714	0	34632	
715	0	34156	
716	0	33796	
717	0	33624	
718	0	33564	
719	0	33584	
720	0	33676	
721	0	33684	
722	0	33208	
723	0	32328	
724	0	30856	
725	0	28816	
726	0	26976	
727	0	26206	
728	0	26248	
729	0	26672	
730	0	27360	
731	0	28176	
732	0	28858	
733	0	29248	
734	0	29672	
735	0	30496	
736	0	31672	
737	0	33192	
738	0	34944	
739	0	36288	
740	0	37708	
741	0	38656	
742	0	39248	
743	0	39664	
744	0	39824	
745	0	39584	
746	0	39160	
747	0	38548	
748	0	37772	
749	0	37080	
750	0	37008	
751	0	37248	
752	0	36916	
753	0	36072	
754	0	34904	
755	0	33416	
756	0	31552	
757	0	29024	
758	0	26138	
759	0	23884	
760	0	22392	
761	0	21730	
762	0	21896	
763	0	23044	
764	0	25040	
765	0	27916	
766	0	31048	
767	0	33748	
768	0	36148	
769	0	37984	
770	0	39456	
771	0	40660	
772	0	40712	
773	0	39920	
774	0	38960	
775	0	37904	
776	0	36120	
777	0	34268	
778	0	33128	
779	0	32344	
780	0	31692	
781	0	31626	
782	0	32052	
783	0	32552	
784	0	32712	
785	0	32852	
786	0	33028	
787	0	32688	
788	0	31800	
789	0	30272	
790	0	27890	
791	0	24630	
792	0	21246	
793	0	18620	
794	0	17738	
795	0	19048	
796	0	22340	
797	0	27116	
798	0	32408	
799	0	36696	
800	0	39580	
801	0	41308	
802	0	42044	
803	0	42128	
804	0	41856	
805	0	41172	
806	0	40152	
807	0	38656	
808	0	36892	
809	0	35104	
810	0	33360	
811	0	31884	
812	0	30516	
813	0	28924	
814	0	27376	
815	0	25834	
816	0	24092	
817	0	22256	
818	0	20913	
819	0	20601	
820	0	21354	
821	0	23420	
822	0	26592	
823	0	30276	
824	0	34040	
825	0	37304	
826	0	39052	
827	0	39828	
828	0	40024	
829	0	39880	
830	0	39396	
831	0	38120	
832	0	36340	
833	0	34536	
834	0	31928	
835	0	29204	
836	0	26696	
837	0	24692	
838	0	23612	
839	0	23680	
840	0	24900	
841	0	27056	
842	0	29280	
843	0	31520	
844	0	33608	
845	0	35744	
846	0	37856	
847	0	40036	
848	0	41656	
849	0	42804	
850	0	43936	
851	0	45152	
852	0	46196	
853	0	46280	
854	0	45568	
855	0	44172	
856	0	42088	
857	0	39828	
858	0	37432	
859	0	33833	
860	0	29392	
861	0	25464	
862	0	23016	
863	0	22272	
864	0	22188	
865	0	22976	
866	0	26480	
867	0	30282	
868	0	32968	
869	0	34310	
870	0	34948	
871	0	36068	
872	0	37600	
873	0	38984	
874	0	39896	
875	0	40716	
876	0	41600	
877	0	41792	
878	0	41072	
879	0	39888	
880	0	38288	
881	0	36636	
882	0	35512	
883	0	34944	
884	0	34064	
885	0	33234	
886	0	32472	
887	0	31960	
888	0	30764	
889	0	27844	
890	0	24544	
891	0	21440	
892	0	19338	
893	0	18804	
894	0	20644	
895	0	24656	
896	0	29200	
897	0	33492	
898	0	36956	
899	0	38304	
900	0	37568	
901	0	36250	
902	0	35064	
903	0	33716	
904	0	32256	
905	0	30988	
906	0	29772	
907	0	28724	
908	0	27180	
909	0	25800	
910	0	24240	
911	0	23282	
912	0	24416	
913	0	27328	
914	0	31716	
915	0	36280	
916	0	39580	
917	0	42440	
918	0	44112	
919	0	44576	
920	0	44284	
921	0	42946	
922	0	41484	
923	0	40252	
924	0	39156	
925	0	38192	
926	0	35834	
927	0	31744	
928	0	27156	
929	0	22788	
930	0	18604	
931	0	14934	
932	0	11178	
933	0	7492	
934	0	5322	
935	0	6687	
936	0	11784	
937	0	18912	
938	0	27228	
939	0	36016	
940	0	42772	
941	0	46208	
942	0	47424	
943	0	46704	
944	0	45384	
945	0	44032	
946	0	42932	
947	0	41844	
948	0	40676	
949	0	39140	
950	0	37672	
951	0	36160	
952	0	34604	
953	0	32856	
954	0	31796	
955	0	32188	
956	0	33372	
957	0	34976	
958	0	36754	
959	0	38136	
960	0	38928	
961	0	39404	
962	0	39744	
963	0	39488	
964	0	37964	
965	0	35692	
966	0	33468	
967	0	31500	
968	0	30049	
969	0	29120	
970	0	28564	
971	0	28824	
972	0	29388	
973	0	29424	
974	0	28612	
975	0	27292	
976	0	25316	
977	0	23084	
978	0	21280	
979	0	20448	
980	0	21448	
981	0	24340	
982	0	27852	
983	0	31728	
984	0	36318	
985	0	40808	
986	0	44016	
987	0	45072	
988	0	44904	
989	0	44284	
990	0	42444	
991	0	39464	
992	0	35284	
993	0	30064	
994	0	24988	
995	0	19420	
996	0	14404	
997	0	11193	
998	0	9620	
999	0	10138	
1000	0	12104	
1001	0	16330	
1002	0	22928	
1003	0	30528	
1004	0	38908	
1005	0	45188	
1006	0	49728	
1007	0	52456	
1008	0	52944	
1009	0	51072	
1010	0	47856	
1011	0	43812	
1012	0	39820	
1013	0	36456	
1014	0	33866	
1015	0	32336	
1016	0	32140	
1017	0	32440	
1018	0	32816	
1019	0	33040	
1020	0	33576	
1021	0	34640	
1022	0	36244	
1023	0	38288	
1024	0	40064	
1025	0	41132	
1026	0	41248	
1027	0	40776	
1028	0	40336	
1029	0	39688	
1030	0	38756	
1031	0	38012	
1032	0	37544	
1033	0	37196	
1034	0	36804	
1035	0	36392	
1036	0	35608	
1037	0	33960	
1038	0	30960	
1039	0	27812	
1040	0	24528	
1041	0	21264	
1042	0	18760	
1043	0	18102	
1044	0	19212	
1045	0	21274	
1046	0	23890	
1047	0	28052	
1048	0	31968	
1049	0	35824	
1050	0	39864	
1051	0	43480	
1052	0	45856	
1053	0	46280	
1054	0	45096	
1055	0	43312	
1056	0	41456	
1057	0	39992	
1058	0	38784	
1059	0	37236	
1060	0	36028	
1061	0	35016	
1062	0	33848	
1063	0	32424	
1064	0	30988	
1065	0	29728	
1066	0	28512	
1067	0	27344	
1068	0	26312	
1069	0	25994	
1070	0	26592	
1071	0	28424	
1072	0	31112	
1073	0	33738	
1074	0	35216	
1075	0	35668	
1076	0	36184	
1077	0	37348	
1078	0	38680	
1079	0	39784	
1080	0	39832	
1081	0	38660	
1082	0	37156	
1083	0	36106	
1084	0	35332	
1085	0	34116	
1086	0	32488	
1087	0	31720	
1088	0	31280	
1089	0	31336	
1090	0	32544	
1091	0	34396	
1092	0	36156	
1093	0	37464	
1094	0	37816	
1095	0	37996	
1096	0	37586	
1097	0	37080	
1098	0	36384	
1099	0	35372	
1100	0	34508	
1101	0	33736	
1102	0	33092	
1103	0	32448	
1104	0	31756	
1105	0	30600	
1106	0	28484	
1107	0	25788	
1108	0	23096	
1109	0	21670	
1110	0	23592	
1111	0	28816	
1112	0	34900	
1113	0	41136	
1114	0	45760	
1115	0	47744	
1116	0	47304	
1117	0	44684	
1118	0	41656	
1119	0	38416	
1120	0	34748	
1121	0	31248	
1122	0	28904	
1123	0	27488	
1124	0	25984	
1125	0	25136	
1126	0	26240	
1127	0	28472	
1128	0	30008	
1129	0	32692	
1130	0	35560	
1131	0	37528	
1132	0	39304	
1133	0	39976	
1134	0	39400	
1135	0	36956	
1136	0	34996	
1137	0	34900	
1138	0	36080	
1139	0	38252	
1140	0	40792	
1141	0	41916	
1142	0	41808	
1143	0	40516	
1144	0	38568	
1145	0	36384	
1146	0	34220	
1147	0	32196	
1148	0	30168	
1149	0	28820	
1150	0	28320	
1151	0	27816	
1152	0	27504	
1153	0	28428	
1154	0	30784	
1155	0	33572	
1156	0	35794	
1157	0	37308	
1158	0	36916	
1159	0	34628	
1160	0	31520	
1161	0	28560	
1162	0	26324	
1163	0	25848	
1164	0	27076	
1165	0	29378	
1166	0	31836	
1167	0	33880	
1168	0	34980	
1169	0	35304	
1170	0	35816	
1171	0	35980	
1172	0	35672	
1173	0	35052	
1174	0	33896	
1175	0	32676	
1176	0	31784	
1177	0	31668	
1178	0	32496	
1179	0	33656	
1180	0	34560	
1181	0	34608	
1182	0	33804	
1183	0	32860	
1184	0	31904	
1185	0	30688	
1186	0	29536	
1187	0	28080	
1188	0	26408	
1189	0	25336	
1190	0	24328	
1191	0	22762	
1192	0	20828	
1193	0	19208	
1194	0	17648	
1195	0	17348	
1196	0	18176	
1197	0	19070	
1198	0	21706	
1199	0	26124	
1200	0	31368	
1201	0	37236	
1202	0	42372	
1203	0	45688	
1204	0	46428	
1205	0	45328	
1206	0	43264	
1207	0	41248	
1208	0	39754	
1209	0	39116	
1210	0	38832	
1211	0	38056	
1212	0	36200	
1213	0	33924	
1214	0	31956	
1215	0	30570	
1216	0	30096	
1217	0	30384	
1218	0	31172	
1219	0	32392	
1220	0	33024	
1221	0	33172	
1222	0	33340	
1223	0	33508	
1224	0	33022	
1225	0	31870	
1226	0	30376	
1227	0	28316	
1228	0	25824	
1229	0	23944	
1230	0	23200	
1231	0	23288	
1232	0	24416	
1233	0	26336	
1234	0	28188	
1235	0	29588	
1236	0	30796	
1237	0	32392	
1238	0	34656	
1239	0	36568	
1240	0	37692	
1241	0	38312	
1242	0	38304	
1243	0	36892	
1244	0	33456	
1245	0	27372	
1246	0	19570	
1247	0	11873	
1248	0	6912	
1249	0	4306	
1250	0	6930	
1251	0	15630	
1252	0	26856	
1253	0	37896	
1254	0	47448	
1255	0	52520	
1256	0	53680	
1257	0	51756	
1258	0	48844	
1259	0	46080	
1260	0	43592	
1261	0	41396	
1262	0	39556	
1263	0	38248	
1264	0	36976	
1265	0	35560	
1266	0	34096	
1267	0	32784	
1268	0	31696	
1269	0	31008	
1270	0	30396	
1271	0	29900	
1272	0	29708	
1273	0	29210	
1274	0	27936	
1275	0	26408	
1276	0	25556	
1277	0	25020	
1278	0	25320	
1279	0	26912	
1280	0	29232	
1281	0	31636	
1282	0	34032	
1283	0	36384	
1284	0	38352	
1285	0	39140	
1286	0	39148	
1287	0	38520	
1288	0	37316	
1289	0	35856	
1290	0	33380	
1291	0	29752	
1292	0	26588	
1293	0	24624	
1294	0	23900	
1295	0	24300	
1296	0	26968	
1297	0	30048	
1298	0	31796	
1299	0	32458	
1300	0	32688	
1301	0	32688	
1302	0	32352	
1303	0	32264	
1304	0	33596	
1305	0	35700	
1306	0	36712	
1307	0	37224	
1308	0	37112	
1309	0	34964	
1310	0	30712	
1311	0	25740	
1312	0	22040	
1313	0	20340	
1314	0	20828	
1315	0	24266	
1316	0	29776	
1317	0	35722	
1318	0	40192	
1319	0	41204	
1320	0	40376	
1321	0	39056	
1322	0	37480	
1323	0	35744	
1324	0	34656	
1325	0	33820	
1326	0	32626	
1327	0	31642	
1328	0	31256	
1329	0	32108	
1330	0	33312	
1331	0	33608	
1332	0	33420	
1333	0	30912	
1334	0	25900	
1335	0	19664	
1336	0	14996	
1337	0	13526	
1338	0	14614	
1339	0	19274	
1340	0	26504	
1341	0	33376	
1342	0	39064	
1343	0	42116	
1344	0	43420	
1345	0	43988	
1346	0	43980	
1347	0	43496	
1348	0	43312	
1349	0	43616	
1350	0	42832	
1351	0	41480	
1352	0	39992	
1353	0	38456	
1354	0	36980	
1355	0	35520	
1356	0	33712	
1357	0	31648	
1358	0	29508	
1359	0	27664	
1360	0	26704	
1361	0	27048	
1362	0	28320	
1363	0	29588	
1364	0	29848	
1365	0	29044	
1366	0	28792	
1367	0	29224	
1368	0	30074	
1369	0	31704	
1370	0	33996	
1371	0	36220	
1372	0	37060	
1373	0	37096	
1374	0	36080	
1375	0	34132	
1376	0	32116	
1377	0	30474	
1378	0	27948	
1379	0	25404	
1380	0	23984	
1381	0	23528	
1382	0	24724	
1383	0	28008	
1384	0	31836	
1385	0	34512	
1386	0	35664	
1387	0	35700	
1388	0	35856	
1389	0	36492	
1390	0	36952	
1391	0	37024	
1392	0	37272	
1393	0	37304	
1394	0	36348	
1395	0	35156	
1396	0	34308	
1397	0	34348	
1398	0	34842	
1399	0	34976	
1400	0	34820	
1401	0	34160	
1402	0	33556	
1403	0	32872	
1404	0	32184	
1405	0	32420	
1406	0	33380	
1407	0	33728	
1408	0	32744	
1409	0	30068	
1410	0	26525	
1411	0	22832	
1412	0	20026	
1413	0	18386	
1414	0	19608	
1415	0	24580	
1416	0	30016	
1417	0	35608	
1418	0	40032	
1419	0	42568	
1420	0	43148	
1421	0	42200	
1422	0	40828	
1423	0	39620	
1424	0	38292	
1425	0	37012	
1426	0	35688	
1427	0	33768	
1428	0	31608	
1429	0	30100	
1430	0	28732	
1431	0	27248	
1432	0	27560	
1433	0	29592	
1434	0	32280	
1435	0	34412	
1436	0	35128	
1437	0	34400	
1438	0	32928	
1439	0	31784	
1440	0	32256	
1441	0	34132	
1442	0	35824	
1443	0	36610	
1444	0	36264	
1445	0	34412	
1446	0	31352	
1447	0	27984	
1448	0	26024	
1449	0	26080	
1450	0	28136	
1451	0	30944	
1452	0	34588	
1453	0	37256	
1454	0	37770	
1455	0	37050	
1456	0	35768	
1457	0	34512	
1458	0	34302	
1459	0	35268	
1460	0	36248	
1461	0	37072	
1462	0	37508	
1463	0	37344	
1464	0	36586	
1465	0	35568	
1466	0	34840	
1467	0	34328	
1468	0	34000	
1469	0	33876	
1470	0	33820	
1471	0	33660	
1472	0	33364	
1473	0	32844	
1474	0	32056	
1475	0	30896	
1476	0	29320	
1477	0	27336	
1478	0	25652	
1479	0	24752	
1480	0	24756	
1481	0	25964	
1482	0	27796	
1483	0	30544	
1484	0	34192	
1485	0	37204	
1486	0	39264	
1487	0	39792	
1488	0	39176	
1489	0	38248	
1490	0	37448	
1491	0	36944	
1492	0	36396	
1493	0	35384	
1494	0	33848	
1495	0	31564	
1496	0	28241	
1497	0	24556	
1498	0	22192	
1499	0	21688	
1500	0	23084	
1501	0	26096	
1502	0	30184	
1503	0	33468	
1504	0	35180	
1505	0	35972	
1506	0	37252	
1507	0	38148	
1508	0	38616	
1509	0	38792	
1510	0	38008	
1511	0	36824	
1512	0	35820	
1513	0	34456	
1514	0	33212	
1515	0	32828	
1516	0	33592	
1517	0	34436	
1518	0	34936	
1519	0	35544	
1520	0	35876	
1521	0	35604	
1522	0	34288	
1523	0	32840	
1524	0	31780	
1525	0	30532	
1526	0	29200	
1527	0	28152	
1528	0	28320	
1529	0	29296	
1530	0	30656	
1531	0	32440	
1532	0	34432	
1533	0	36484	
1534	0	37872	
1535	0	37944	
1536	0	37592	
1537	0	36900	
1538	0	35608	
1539	0	34100	
1540	0	32588	
1541	0	31312	
1542	0	30008	
1543	0	29120	
1544	0	29108	
1545	0	29472	
1546	0	30298	
1547	0	31952	
1548	0	33360	
1549	0	33620	
1550	0	33500	
1551	0	33596	
1552	0	33804	
1553	0	34128	
1554	0	34576	
1555	0	35156	
1556	0	35220	
1557	0	35060	
1558	0	34616	
1559	0	33720	
1560	0	32568	
1561	0	31600	
1562	0	31232	
1563	0	29952	
1564	0	28904	
1565	0	28844	
1566	0	29808	
1567	0	31616	
1568	0	33608	
1569	0	35000	
1570	0	35180	
1571	0	35064	
1572	0	35352	
1573	0	35632	
1574	0	36076	
1575	0	37028	
1576	0	37476	
1577	0	37108	
1578	0	36352	
1579	0	35196	
1580	0	33660	
1581	0	31924	
1582	0	30058	
1583	0	28658	
1584	0	28280	
1585	0	29504	
1586	0	31388	
1587	0	32876	
1588	0	33972	
1589	0	33468	
1590	0	31904	
1591	0	30976	
1592	0	30472	
1593	0	30656	
1594	0	32200	
1595	0	35048	
1596	0	37068	
1597	0	36956	
1598	0	35496	
1599	0	34456	
1600	0	34340	
1601	0	35232	
1602	0	36344	
1603	0	36816	
1604	0	36616	
1605	0	35980	
1606	0	35356	
1607	0	34896	
1608	0	34408	
1609	0	33792	
1610	0	33296	
1611	0	33162	
1612	0	33592	
1613	0	33592	
1614	0	32388	
1615	0	29744	
1616	0	27106	
1617	0	24936	
1618	0	23576	
1619	0	24454	
1620	0	28032	
1621	0	32748	
1622	0	37412	
1623	0	40512	
1624	0	41832	
1625	0	41529	
1626	0	40168	
1627	0	38676	
1628	0	37712	
1629	0	37216	
1630	0	37128	
1631	0	37256	
1632	0	37388	
1633	0	37164	
1634	0	36756	
1635	0	36192	
1636	0	35204	
1637	0	33866	
1638	0	32476	
1639	0	31572	
1640	0	30816	
1641	0	30212	
1642	0	30056	
1643	0	30460	
1644	0	30784	
1645	0	30224	
1646	0	29080	
1647	0	27765	
1648	0	27444	
1649	0	28288	
1650	0	30040	
1651	0	32264	
1652	0	34336	
1653	0	35476	
1654	0	35908	
1655	0	35392	
1656	0	34136	
1657	0	32792	
1658	0	31756	
1659	0	31224	
1660	0	31472	
1661	0	32792	
1662	0	34528	
1663	0	36008	
1664	0	37220	
1665	0	38080	
1666	0	37908	
1667	0	37180	
1668	0	36332	
1669	0	35384	
1670	0	34584	
1671	0	33658	
1672	0	32584	
1673	0	31840	
1674	0	31544	
1675	0	31688	
1676	0	31900	
1677	0	31712	
1678	0	31036	
1679	0	29504	
1680	0	27468	
1681	0	26224	
1682	0	26472	
1683	0	28660	
1684	0	31232	
1685	0	34096	
1686	0	36784	
1687	0	37860	
1688	0	38172	
1689	0	38340	
1690	0	38112	
1691	0	37496	
1692	0	36788	
1693	0	36088	
1694	0	34980	
1695	0	33584	
1696	0	32080	
1697	0	30488	
1698	0	29668	
1699	0	30168	
1700	0	31404	
1701	0	32384	
1702	0	32476	
1703	0	31292	
1704	0	29572	
1705	0	28682	
1706	0	29312	
1707	0	30664	
1708	0	32420	
1709	0	33996	
1710	0	34360	
1711	0	33760	
1712	0	33112	
1713	0	33236	
1714	0	33840	
1715	0	34992	
1716	0	36352	
1717	0	37200	
1718	0	37208	
1719	0	36776	
1720	0	36160	
1721	0	35392	
1722	0	34736	
1723	0	33992	
1724	0	32928	
1725	0	31876	
1726	0	31116	
1727	0	31360	
1728	0	32628	
1729	0	33924	
1730	0	34852	
1731	0	35988	
1732	0	36624	
1733	0	36188	
1734	0	34672	
1735	0	32706	
1736	0	31280	
1737	0	30810	
1738	0	30884	
1739	0	31450	
1740	0	32584	
1741	0	32452	
1742	0	31376	
1743	0	30830	
1744	0	31536	
1745	0	32780	
1746	0	34792	
1747	0	37812	
1748	0	40692	
1749	0	41960	
1750	0	42284	
1751	0	42512	
1752	0	42384	
1753	0	41520	
1754	0	40096	
1755	0	38644	
1756	0	37488	
1757	0	36540	
1758	0	35580	
1759	0	34696	
1760	0	34128	
1761	0	33736	
1762	0	33356	
1763	0	32828	
1764	0	32188	
1765	0	31328	
1766	0	30872	
1767	0	31040	
1768	0	31556	
1769	0	32056	
1770	0	32700	
1771	0	33428	
1772	0	33856	
1773	0	33796	
1774	0	33412	
1775	0	32472	
1776	0	31066	
1777	0	29512	
1778	0	28864	
1779	0	29564	
1780	0	30660	
1781	0	32104	
1782	0	32988	
1783	0	32980	
1784	0	32856	
1785	0	33064	
1786	0	34040	
1787	0	35248	
1788	0	35484	
1789	0	34308	
1790	0	32248	
1791	0	30640	
1792	0	29736	
1793	0	30016	
1794	0	31520	
1795	0	33276	
1796	0	34784	
1797	0	35576	
1798	0	35480	
1799	0	34828	
1800	0	34220	
1801	0	33604	
1802	0	33084	
1803	0	32840	
1804	0	32890	
1805	0	32954	
1806	0	33048	
1807	0	33252	
1808	0	33496	
1809	0	33616	
1810	0	33652	
1811	0	33236	
1812	0	32458	
1813	0	31764	
1814	0	31248	
1815	0	30476	
1816	0	29552	
1817	0	28586	
1818	0	27368	
1819	0	26362	
1820	0	26684	
1821	0	28992	
1822	0	32596	
1823	0	35760	
1824	0	37404	
1825	0	38184	
1826	0	38636	
1827	0	38568	
1828	0	37834	
1829	0	37004	
1830	0	36632	
1831	0	36140	
1832	0	35412	
1833	0	34504	
1834	0	33656	
1835	0	32944	
1836	0	32680	
1837	0	33234	
1838	0	33728	
1839	0	34180	
1840	0	34632	
1841	0	34744	
1842	0	34496	
1843	0	34088	
1844	0	33624	
1845	0	33104	
1846	0	32576	
1847	0	32400	
1848	0	32480	
1849	0	32802	
1850	0	33296	
1851	0	33680	
1852	0	33896	
1853	0	33746	
1854	0	33196	
1855	0	32136	
1856	0	31104	
1857	0	29984	
1858	0	28860	
1859	0	28564	
1860	0	29356	
1861	0	30896	
1862	0	32656	
1863	0	33844	
1864	0	33520	
1865	0	32000	
1866	0	30164	
1867	0	28840	
1868	0	28340	
1869	0	28760	
1870	0	29506	
1871	0	29948	
1872	0	30440	
1873	0	31236	
1874	0	33076	
1875	0	34844	
1876	0	36056	
1877	0	36912	
1878	0	37280	
1879	0	36840	
1880	0	35853	
1881	0	34616	
1882	0	34116	
1883	0	33461	
1884	0	32392	
1885	0	32124	
1886	0	32770	
1887	0	33592	
1888	0	34336	
1889	0	34832	
1890	0	35040	
1891	0	35300	
1892	0	35608	
1893	0	35856	
1894	0	35680	
1895	0	35428	
1896	0	35188	
1897	0	34888	
1898	0	34616	
1899	0	34344	
1900	0	33828	
1901	0	32944	
1902	0	31744	
1903	0	30556	
1904	0	29792	
1905	0	29564	
1906	0	30458	
1907	0	32624	
1908	0	34724	
1909	0	36152	
1910	0	36300	
1911	0	35556	
1912	0	34276	
1913	0	32948	
1914	0	31424	
1915	0	30520	
1916	0	30256	
1917	0	30652	
1918	0	31820	
1919	0	32308	
1920	0	32272	
1921	0	32208	
1922	0	32288	
1923	0	32508	
1924	0	32916	
1925	0	33140	
1926	0	33196	
1927	0	32896	
1928	0	32596	
1929	0	32780	
1930	0	33560	
1931	0	34224	
1932	0	34952	
1933	0	35248	
1934	0	34976	
1935	0	34480	
1936	0	34336	
1937	0	34884	
1938	0	35628	
1939	0	35832	
1940	0	35404	
1941	0	34932	
1942	0	34464	
1943	0	33948	
1944	0	33616	
1945	0	33796	
1946	0	33952	
1947	0	34268	
1948	0	34744	
1949	0	35120	
1950	0	35028	
1951	0	34428	
1952	0	32600	
1953	0	29912	
1954	0	27772	
1955	0	26884	
1956	0	27284	
1957	0	28996	
1958	0	31392	
1959	0	34520	
1960	0	36936	
1961	0	37992	
1962	0	37936	
1963	0	36824	
1964	0	35448	
1965	0	34092	
1966	0	33016	
1967	0	32116	
1968	0	31412	
1969	0	31538	
1970	0	32840	
1971	0	34608	
1972	0	36244	
1973	0	37408	
1974	0	37512	
1975	0	36956	
1976	0	35988	
1977	0	34784	
1978	0	34032	
1979	0	34056	
1980	0	34836	
1981	0	35984	
1982	0	36808	
1983	0	36856	
1984	0	36132	
1985	0	35172	
1986	0	34164	
1987	0	33586	
1988	0	33730	
1989	0	34304	
1990	0	34848	
1991	0	35316	
1992	0	35308	
1993	0	35068	
1994	0	34964	
1995	0	34668	
1996	0	34360	
1997	0	34548	
1998	0	34536	
1999	0	34532	
2000	0	34564	
2001	0	34152	
2002	0	33568	
2003	0	33274	
2004	0	33532	
2005	0	33668	
2006	0	33632	
2007	0	33594	
2008	0	32948	
2009	0	32192	
2010	0	30968	
2011	0	30388	
2012	0	31056	
2013	0	31960	
2014	0	33028	
2015	0	34448	
2016	0	36150	
2017	0	36680	
2018	0	36508	
2019	0	36596	
2020	0	36464	
2021	0	35668	
2022	0	33952	
2023	0	31996	
2024	0	29984	
2025	0	28820	
2026	0	29132	
2027	0	30928	
2028	0	33544	
2029	0	36156	
2030	0	37928	
2031	0	39308	
2032	0	39728	
2033	0	39128	
2034	0	37690	
2035	0	36488	
2036	0	35364	
2037	0	34140	
2038	0	33136	
2039	0	32572	
2040	0	32174	
2041	0	32116	
2042	0	32564	
2043	0	32560	
2044	0	32260	
2045	0	31898	
2046	0	31520	
2047	0	30984	
2048	0	30514	
2049	0	30688	
2050	0	31392	
2051	0	32676	
2052	0	34228	
2053	0	34768	
2054	0	34496	
2055	0	33280	
2056	0	31660	
2057	0	30672	
2058	0	30156	
2059	0	29884	
2060	0	29344	
2061	0	28864	
2062	0	28516	
2063	0	28520	
2064	0	29228	
2065	0	31154	
2066	0	33344	
2067	0	34888	
2068	0	35276	
2069	0	34320	
2070	0	32984	
2071	0	32244	
2072	0	31792	
2073	0	31804	
2074	0	32768	
2075	0	34144	
2076	0	34712	
2077	0	34288	
2078	0	33052	
2079	0	31450	
2080	0	30700	
2081	0	30832	
2082	0	30894	
2083	0	30656	
2084	0	30400	
2085	0	30036	
2086	0	29264	
2087	0	28632	
2088	0	28872	
2089	0	29948	
2090	0	31064	
2091	0	31944	
2092	0	32024	
2093	0	31308	
2094	0	30252	
2095	0	29160	
2096	0	28368	
2097	0	27992	
2098	0	28980	
2099	0	31800	
2100	0	33908	
2101	0	35048	
2102	0	35580	
2103	0	35300	
2104	0	34196	
2105	0	32896	
2106	0	31426	
2107	0	29872	
2108	0	28344	
2109	0	27148	
2110	0	27010	
2111	0	27448	
2112	0	28620	
2113	0	30500	
2114	0	31904	
2115	0	32284	
2116	0	31450	
2117	0	30720	
2118	0	30568	
2119	0	31086	
2120	0	31912	
2121	0	32696	
2122	0	33328	
2123	0	33760	
2124	0	33816	
2125	0	33608	
2126	0	33568	
2127	0	33460	
2128	0	32792	
2129	0	31776	
2130	0	30924	
2131	0	30104	
2132	0	29512	
2133	0	29336	
2134	0	29616	
2135	0	30904	
2136	0	32424	
2137	0	33592	
2138	0	34540	
2139	0	34808	
2140	0	34172	
2141	0	32768	
2142	0	31512	
2143	0	30520	
2144	0	30052	
2145	0	30064	
2146	0	30936	
2147	0	32256	
2148	0	33240	
2149	0	33864	
2150	0	34144	
2151	0	33712	
2152	0	32432	
2153	0	30592	
2154	0	28820	
2155	0	27144	
2156	0	25992	
2157	0	26096	
2158	0	27848	
2159	0	30520	
2160	0	33284	
2161	0	34940	
2162	0	34992	
2163	0	34012	
2164	0	33090	
2165	0	32344	
2166	0	32052	
2167	0	32048	
2168	0	32456	
2169	0	33092	
2170	0	33344	
2171	0	33076	
2172	0	32816	
2173	0	32776	
2174	0	32816	
2175	0	32860	
2176	0	33368	
2177	0	33624	
2178	0	33044	
2179	0	32140	
2180	0	30960	
2181	0	30156	
2182	0	29724	
2183	0	29624	
2184	0	30116	
2185	0	30336	
2186	0	30868	
2187	0	31388	
2188	0	31428	
2189	0	31424	
2190	0	31704	
2191	0	31796	
2192	0	31368	
2193	0	30664	
2194	0	30800	
2195	0	31960	
2196	0	33408	
2197	0	34644	
2198	0	35428	
2199	0	35492	
2200	0	35256	
2201	0	35120	
2202	0	34932	
2203	0	34436	
2204	0	33616	
2205	0	32732	
2206	0	31972	
2207	0	31176	
2208	0	30540	
2209	0	30260	
2210	0	29972	
2211	0	29844	
2212	0	30036	
2213	0	29896	
2214	0	29760	
2215	0	30200	
2216	0	31080	
2217	0	31528	
2218	0	31380	
2219	0	30532	
2220	0	29808	
2221	0	30480	
2222	0	32448	
2223	0	34488	
2224	0	35316	
2225	0	34916	
2226	0	34316	
2227	0	33724	
2228	0	33282	
2229	0	32816	
2230	0	32440	
2231	0	32088	
2232	0	31552	
2233	0	30984	
2234	0	30424	
2235	0	29884	
2236	0	29568	
2237	0	29904	
2238	0	30492	
2239	0	31008	
2240	0	31912	
2241	0	33248	
2242	0	33816	
2243	0	33928	
2244	0	34116	
2245	0	34056	
2246	0	33576	
2247	0	32528	
2248	0	31380	
2249	0	30412	
2250	0	29864	
2251	0	29772	
2252	0	30680	
2253	0	31944	
2254	0	32920	
2255	0	34244	
2256	0	35380	
2257	0	35412	
2258	0	35340	
2259	0	35536	
2260	0	35416	
2261	0	34848	
2262	0	34096	
2263	0	32952	
2264	0	31320	
2265	0	30064	
2266	0	29184	
2267	0	28596	
2268	0	28706	
2269	0	29272	
2270	0	30564	
2271	0	32412	
2272	0	34024	
2273	0	35552	
2274	0	36156	
2275	0	35468	
2276	0	34448	
2277	0	33176	
2278	0	32376	
2279	0	32044	
2280	0	31636	
2281	0	30768	
2282	0	29748	
2283	0	28820	
2284	0	27740	
2285	0	26676	
2286	0	25834	
2287	0	26156	
2288	0	27860	
2289	0	31140	
2290	0	34888	
2291	0	37552	
2292	0	38880	
2293	0	39144	
2294	0	38688	
2295	0	37668	
2296	0	36464	
2297	0	35064	
2298	0	33756	
2299	0	32728	
2300	0	32008	
2301	0	31512	
2302	0	30816	
2303	0	30328	
2304	0	30600	
2305	0	31092	
2306	0	31436	
2307	0	32024	
2308	0	32820	
2309	0	32992	
2310	0	32488	
2311	0	32048	
2312	0	32208	
2313	0	32266	
2314	0	32120	
2315	0	32128	
2316	0	32328	
2317	0	32968	
2318	0	32902	
2319	0	31972	
2320	0	31472	
2321	0	31332	
2322	0	31278	
2323	0	31364	
2324	0	31756	
2325	0	32556	
2326	0	32816	
2327	0	32492	
2328	0	32344	
2329	0	31676	
2330	0	31108	
2331	0	31296	
2332	0	32108	
2333	0	32976	
2334	0	33792	
2335	0	34864	
2336	0	35848	
2337	0	36296	
2338	0	35960	
2339	0	35322	
2340	0	34708	
2341	0	34180	
2342	0	33088	
2343	0	31696	
2344	0	30312	
2345	0	29040	
2346	0	28576	
2347	0	28472	
2348	0	28680	
2349	0	29080	
2350	0	29776	
2351	0	30836	
2352	0	31036	
2353	0	31080	
2354	0	31408	
2355	0	32480	
2356	0	34236	
2357	0	35384	
2358	0	35708	
2359	0	35520	
2360	0	33984	
2361	0	31864	
2362	0	30128	
2363	0	28956	
2364	0	28868	
2365	0	29776	
2366	0	31208	
2367	0	32706	
2368	0	34236	
2369	0	35616	
2370	0	36604	
2371	0	36804	
2372	0	36240	
2373	0	35116	
2374	0	33148	
2375	0	30772	
2376	0	28968	
2377	0	28000	
2378	0	28460	
2379	0	30200	
2380	0	32252	
2381	0	33556	
2382	0	33816	
2383	0	32984	
2384	0	32104	
2385	0	31748	
2386	0	32248	
2387	0	33212	
2388	0	34868	
2389	0	35640	
2390	0	35636	
2391	0	35692	
2392	0	35788	
2393	0	34888	
2394	0	33184	
2395	0	31428	
2396	0	30152	
2397	0	30292	
2398	0	31064	
2399	0	31868	
2400	0	32136	
2401	0	32208	
2402	0	32328	
2403	0	32140	
2404	0	32448	
2405	0	33012	
2406	0	34032	
2407	0	34968	
2408	0	35332	
2409	0	35380	
2410	0	35056	
2411	0	34508	
2412	0	33804	
2413	0	32828	
2414	0	31680	
2415	0	30220	
2416	0	28732	
2417	0	27776	
2418	0	27496	
2419	0	28010	
2420	0	29276	
2421	0	30768	
2422	0	32344	
2423	0	33808	
2424	0	34848	
2425	0	35168	
2426	0	35148	
2427	0	35240	
2428	0	35452	
2429	0	35048	
2430	0	34394	
2431	0	33968	
2432	0	33628	
2433	0	32808	
2434	0	32056	
2435	0	31508	
2436	0	30912	
2437	0	30660	
2438	0	30828	
2439	0	31348	
2440	0	31624	
2441	0	31684	
2442	0	31460	
2443	0	31416	
2444	0	31692	
2445	0	31880	
2446	0	32616	
2447	0	33200	
2448	0	33128	
2449	0	32664	
2450	0	32728	
2451	0	32864	
2452	0	33712	
2453	0	33932	
2454	0	33504	
2455	0	33820	
2456	0	34216	
2457	0	34000	
2458	0	33100	
2459	0	31976	
2460	0	30972	
2461	0	30436	
2462	0	30892	
2463	0	31544	
2464	0	31784	
2465	0	32128	
2466	0	32932	
2467	0	33588	
2468	0	34276	
2469	0	34532	
2470	0	34232	
2471	0	33496	
2472	0	32744	
2473	0	32300	
2474	0	31952	
2475	0	31648	
2476	0	32200	
2477	0	32436	
2478	0	32392	
2479	0	33004	
2480	0	33510	
2481	0	32980	
2482	0	31964	
2483	0	30864	
2484	0	29996	
2485	0	29752	
2486	0	30840	
2487	0	32500	
2488	0	34378	
2489	0	36584	
2490	0	37984	
2491	0	38352	
2492	0	37772	
2493	0	36700	
2494	0	35616	
2495	0	33712	
2496	0	31680	
2497	0	30252	
2498	0	29196	
2499	0	28204	
2500	0	27728	
2501	0	28972	
2502	0	30456	
2503	0	31244	
2504	0	31838	
2505	0	31700	
2506	0	30940	
2507	0	30114	
2508	0	30304	
2509	0	31192	
2510	0	32788	
2511	0	34808	
2512	0	37128	
2513	0	38556	
2514	0	37896	
2515	0	37108	
2516	0	36352	
2517	0	35552	
2518	0	34944	
2519	0	34424	
2520	0	33968	
2521	0	33432	
2522	0	33044	
2523	0	32340	
2524	0	32064	
2525	0	32792	
2526	0	33792	
2527	0	34264	
2528	0	34696	
2529	0	34752	
2530	0	34460	
2531	0	34628	
2532	0	34776	
2533	0	34440	
2534	0	33930	
2535	0	33748	
2536	0	33716	
2537	0	33696	
2538	0	33800	
2539	0	33520	
2540	0	33104	
2541	0	32256	
2542	0	31376	
2543	0	30332	
2544	0	29320	
2545	0	28868	
2546	0	29448	
2547	0	30540	
2548	0	31372	
2549	0	31936	
2550	0	32156	
2551	0	32064	
2552	0	31224	
2553	0	30320	
2554	0	29300	
2555	0	28604	
2556	0	28812	
2557	0	29644	
2558	0	31148	
2559	0	33252	
2560	0	35728	
2561	0	37208	
2562	0	37176	
2563	0	35936	
2564	0	34176	
2565	0	32984	
2566	0	32920	
2567	0	32680	
2568	0	32136	
2569	0	31940	
2570	0	31496	
2571	0	31248	
2572	0	31860	
2573	0	33356	
2574	0	34560	
2575	0	34708	
2576	0	34136	
2577	0	33088	
2578	0	31468	
2579	0	29776	
2580	0	28564	
2581	0	28176	
2582	0	28652	
2583	0	30196	
2584	0	32640	
2585	0	35316	
2586	0	36912	
2587	0	36640	
2588	0	35824	
2589	0	35008	
2590	0	34296	
2591	0	33636	
2592	0	33272	
2593	0	32402	
2594	0	31488	
2595	0	31128	
2596	0	31592	
2597	0	31716	
2598	0	31720	
2599	0	32260	
2600	0	33236	
2601	0	33692	
2602	0	33360	
2603	0	32812	
2604	0	32444	
2605	0	32552	
2606	0	32936	
2607	0	33048	
2608	0	32112	
2609	0	30392	
2610	0	28664	
2611	0	27396	
2612	0	27556	
2613	0	28888	
2614	0	31224	
2615	0	34484	
2616	0	36884	
2617	0	37940	
2618	0	38144	
2619	0	37184	
2620	0	35778	
2621	0	34420	
2622	0	33328	
2623	0	32890	
2624	0	32736	
2625	0	32986	
2626	0	33160	
2627	0	32704	
2628	0	32192	
2629	0	31956	
2630	0	31652	
2631	0	30952	
2632	0	30762	
2633	0	30992	
2634	0	31936	
2635	0	32788	
2636	0	33536	
2637	0	34844	
2638	0	36920	
2639	0	37348	
2640	0	37300	
2641	0	37572	
2642	0	38040	
2643	0	37736	
2644	0	37476	
2645	0	37156	
2646	0	36540	
2647	0	35716	
2648	0	34988	
2649	0	34404	
2650	0	33952	
2651	0	33092	
2652	0	32028	
2653	0	31124	
2654	0	30832	
2655	0	31040	
2656	0	32760	
2657	0	34984	
2658	0	36292	
2659	0	36376	
2660	0	36188	
2661	0	36364	
2662	0	36360	
2663	0	36176	
2664	0	35762	
2665	0	34936	
2666	0	34152	
2667	0	33192	
2668	0	32672	
2669	0	32376	
2670	0	32236	
2671	0	31844	
2672	0	31752	
2673	0	32032	
2674	0	31964	
2675	0	31392	
2676	0	30288	
2677	0	29588	
2678	0	29308	
2679	0	29594	
2680	0	29932	
2681	0	30386	
2682	0	30880	
2683	0	29968	
2684	0	28906	
2685	0	28996	
2686	0	30056	
2687	0	30288	
2688	0	30592	
2689	0	32074	
2690	0	33980	
2691	0	35540	
2692	0	36284	
2693	0	36736	
2694	0	36772	
2695	0	36032	
2696	0	35648	
2697	0	35376	
2698	0	35452	
2699	0	35472	
2700	0	35228	
2701	0	35164	
2702	0	34904	
2703	0	33824	
2704	0	32352	
2705	0	31328	
2706	0	31116	
2707	0	31012	
2708	0	31176	
2709	0	31536	
2710	0	31536	
2711	0	30724	
2712	0	29624	
2713	0	28748	
2714	0	28872	
2715	0	29680	
2716	0	30330	
2717	0	31396	
2718	0	32672	
2719	0	33988	
2720	0	34844	
2721	0	35124	
2722	0	34848	
2723	0	33856	
2724	0	32696	
2725	0	31636	
2726	0	30424	
2727	0	29636	
2728	0	29092	
2729	0	28692	
2730	0	28540	
2731	0	28752	
2732	0	29256	
2733	0	30816	
2734	0	32676	
2735	0	34064	
2736	0	34896	
2737	0	34900	
2738	0	34524	
2739	0	33892	
2740	0	33088	
2741	0	32704	
2742	0	33148	
2743	0	33824	
2744	0	34404	
2745	0	34736	
2746	0	34216	
2747	0	32212	
2748	0	29912	
2749	0	27796	
2750	0	26264	
2751	0	26234	
2752	0	28672	
2753	0	32932	
2754	0	35976	
2755	0	38044	
2756	0	38888	
2757	0	39176	
2758	0	39000	
2759	0	38404	
2760	0	37448	
2761	0	36408	
2762	0	36048	
2763	0	35276	
2764	0	33856	
2765	0	32292	
2766	0	31128	
2767	0	30100	
2768	0	29364	
2769	0	29772	
2770	0	30416	
2771	0	31296	
2772	0	32288	
2773	0	32490	
2774	0	32338	
2775	0	32364	
2776	0	32532	
2777	0	32472	
2778	0	32648	
2779	0	33248	
2780	0	33316	
2781	0	33624	
2782	0	34412	
2783	0	35200	
2784	0	35572	
2785	0	35640	
2786	0	35512	
2787	0	35196	
2788	0	34344	
2789	0	32952	
2790	0	32108	
2791	0	31636	
2792	0	31116	
2793	0	30744	
2794	0	31004	
2795	0	30840	
2796	0	29644	
2797	0	28664	
2798	0	28356	
2799	0	28720	
2800	0	30156	
2801	0	31824	
2802	0	33476	
2803	0	34136	
2804	0	34412	
2805	0	34592	
2806	0	34268	
2807	0	33564	
2808	0	34108	
2809	0	35168	
2810	0	35516	
2811	0	35152	
2812	0	34116	
2813	0	32044	
2814	0	29796	
2815	0	28088	
2816	0	26928	
2817	0	27524	
2818	0	29420	
2819	0	32048	
2820	0	34716	
2821	0	37224	
2822	0	38708	
2823	0	39440	
2824	0	39856	
2825	0	39372	
2826	0	38992	
2827	0	38580	
2828	0	37441	
2829	0	35936	
2830	0	34796	
2831	0	34528	
2832	0	34320	
2833	0	34200	
2834	0	34500	
2835	0	35088	
2836	0	34656	
2837	0	33074	
2838	0	31624	
2839	0	30360	
2840	0	29476	
2841	0	29360	
2842	0	30288	
2843	0	32168	
2844	0	34200	
2845	0	35680	
2846	0	36104	
2847	0	35940	
2848	0	35412	
2849	0	34924	
2850	0	34208	
2851	0	33288	
2852	0	32060	
2853	0	30704	
2854	0	30108	
2855	0	30584	
2856	0	31876	
2857	0	34056	
2858	0	35880	
2859	0	36960	
2860	0	36776	
2861	0	35856	
2862	0	34920	
2863	0	34040	
2864	0	33448	
2865	0	33080	
2866	0	32680	
2867	0	32836	
2868	0	32960	
2869	0	33320	
2870	0	33944	
2871	0	35304	
2872	0	36764	
2873	0	37468	
2874	0	37416	
2875	0	37080	
2876	0	36108	
2877	0	34552	
2878	0	32904	
2879	0	31724	
2880	0	31148	
2881	0	30736	
2882	0	30720	
2883	0	31200	
2884	0	31908	
2885	0	32560	
2886	0	33648	
2887	0	35048	
2888	0	36376	
2889	0	37370	
2890	0	37944	
2891	0	38060	
2892	0	37346	
2893	0	36468	
2894	0	35824	
2895	0	35420	
2896	0	35068	
2897	0	35064	
2898	0	34520	
2899	0	33888	
2900	0	33504	
2901	0	33440	
2902	0	33354	
2903	0	33508	
2904	0	34224	
2905	0	34528	
2906	0	34680	
2907	0	35264	
2908	0	35482	
2909	0	35228	
2910	0	35128	
2911	0	34956	
2912	0	34216	
2913	0	33328	
2914	0	32604	
2915	0	33072	
2916	0	33464	
2917	0	33496	
2918	0	33540	
2919	0	33256	
2920	0	31984	
2921	0	29948	
2922	0	28104	
2923	0	27442	
2924	0	28072	
2925	0	29980	
2926	0	32200	
2927	0	34224	
2928	0	35248	
2929	0	35448	
2930	0	35850	
2931	0	36260	
2932	0	36796	
2933	0	37460	
2934	0	37724	
2935	0	37826	
2936	0	37536	
2937	0	37460	
2938	0	37132	
2939	0	36324	
2940	0	35420	
2941	0	34588	
2942	0	33898	
2943	0	33232	
2944	0	32452	
2945	0	31596	
2946	0	30512	
2947	0	29396	
2948	0	28652	
2949	0	28340	
2950	0	29152	
2951	0	30160	
2952	0	31092	
2953	0	31860	
2954	0	31972	
2955	0	31724	
2956	0	31758	
2957	0	31188	
2958	0	30194	
2959	0	29820	
2960	0	29352	
2961	0	28744	
2962	0	28928	
2963	0	31000	
2964	0	33484	
2965	0	34528	
2966	0	34648	
2967	0	34284	
2968	0	33122	
2969	0	32508	
2970	0	32356	
2971	0	32460	
2972	0	32464	
2973	0	32360	
2974	0	31888	
2975	0	31572	
2976	0	31832	
2977	0	32464	
2978	0	32528	
2979	0	32060	
2980	0	31616	
2981	0	31616	
2982	0	31640	
2983	0	31356	
2984	0	31236	
2985	0	31100	
2986	0	31728	
2987	0	32920	
2988	0	34200	
2989	0	34656	
2990	0	34268	
2991	0	33564	
2992	0	32816	
2993	0	32060	
2994	0	31002	
2995	0	29704	
2996	0	28764	
2997	0	28318	
2998	0	28588	
2999	0	29472	
3000	0	29680	
3001	0	29200	
3002	0	28748	
3003	0	28112	
3004	0	27188	
3005	0	26688	
3006	0	26392	
3007	0	27100	
3008	0	28532	
3009	0	30736	
3010	0	32688	
3011	0	33808	
3012	0	34272	
3013	0	34056	
3014	0	33724	
3015	0	33376	
3016	0	33508	
3017	0	34100	
3018	0	34688	
3019	0	35024	
3020	0	34924	
3021	0	34336	
3022	0	33272	
3023	0	31900	
3024	0	30868	
3025	0	30204	
3026	0	29912	
3027	0	29788	
3028	0	29820	
3029	0	29544	
3030	0	28268	
3031	0	27068	
3032	0	26168	
3033	0	26312	
3034	0	27928	
3035	0	29976	
3036	0	31648	
3037	0	32648	
3038	0	33360	
3039	0	33428	
3040	0	33752	
3041	0	34512	
3042	0	34128	
3043	0	33144	
3044	0	32364	
3045	0	32148	
3046	0	32524	
3047	0	32868	
3048	0	32116	
3049	0	31316	
3050	0	30804	
3051	0	30388	
3052	0	30780	
3053	0	31936	
3054	0	33088	
3055	0	33914	
3056	0	34242	
3057	0	33636	
3058	0	33032	
3059	0	32680	
3060	0	32868	
3061	0	33848	
3062	0	34968	
3063	0	35648	
3064	0	35532	
3065	0	34904	
3066	0	34096	
3067	0	33356	
3068	0	32836	
3069	0	32624	
3070	0	32224	
3071	0	31956	
3072	0	31716	
3073	0	31340	
3074	0	31084	
3075	0	31008	
3076	0	30968	
3077	0	30096	
3078	0	29052	
3079	0	28720	
3080	0	29020	
3081	0	29844	
3082	0	30724	
3083	0	32164	
3084	0	33176	
3085	0	33176	
3086	0	32880	
3087	0	31724	
3088	0	30368	
3089	0	29840	
3090	0	29944	
3091	0	30304	
3092	0	30776	
3093	0	31722	
3094	0	33034	
3095	0	33804	
3096	0	34192	
3097	0	34048	
3098	0	33176	
3099	0	32186	
3100	0	31568	
3101	0	31200	
3102	0	31104	
3103	0	31584	
3104	0	32812	
3105	0	33712	
3106	0	34200	
3107	0	34452	
3108	0	34952	
3109	0	34824	
3110	0	33980	
3111	0	32344	
3112	0	30080	
3113	0	28344	
3114	0	27712	
3115	0	27820	
3116	0	28992	
3117	0	31032	
3118	0	33256	
3119	0	34636	
3120	0	35208	
3121	0	35028	
3122	0	34512	
3123	0	33416	
3124	0	32436	
3125	0	31816	
3126	0	32244	
3127	0	33128	
3128	0	33800	
3129	0	34244	
3130	0	34496	
3131	0	34804	
3132	0	34556	
3133	0	33544	
3134	0	31624	
3135	0	29584	
3136	0	28116	
3137	0	27028	
3138	0	27008	
3139	0	28260	
3140	0	30696	
3141	0	33744	
3142	0	35888	
3143	0	36620	
3144	0	36432	
3145	0	35924	
3146	0	35760	
3147	0	35856	
3148	0	35580	
3149	0	34604	
3150	0	33296	
3151	0	32584	
3152	0	32608	
3153	0	32868	
3154	0	32540	
3155	0	31760	
3156	0	31112	
3157	0	30876	
3158	0	30936	
3159	0	31288	
3160	0	32652	
3161	0	33964	
3162	0	34380	
3163	0	34276	
3164	0	34156	
3165	0	33508	
3166	0	32696	
3167	0	31826	
3168	0	30696	
3169	0	29324	
3170	0	28260	
3171	0	27808	
3172	0	28328	
3173	0	29676	
3174	0	31700	
3175	0	33544	
3176	0	34752	
3177	0	34736	
3178	0	34096	
3179	0	33776	
3180	0	33144	
3181	0	32520	
3182	0	32276	
3183	0	32248	
3184	0	32492	
3185	0	32132	
3186	0	31208	
3187	0	30740	
3188	0	31118	
3189	0	32085	
3190	0	33188	
3191	0	34544	
3192	0	35572	
3193	0	35640	
3194	0	35348	
3195	0	34736	
3196	0	34368	
3197	0	34536	
3198	0	34856	
3199	0	34368	
3200	0	33228	
3201	0	32180	
3202	0	31616	
3203	0	31084	
3204	0	31076	
3205	0	31209	
3206	0	31060	
3207	0	30532	
3208	0	30298	
3209	0	30030	
3210	0	29852	
3211	0	29984	
3212	0	30604	
3213	0	32056	
3214	0	33244	
3215	0	33500	
3216	0	33320	
3217	0	33474	
3218	0	33564	
3219	0	33472	
3220	0	33684	
3221	0	34248	
3222	0	34672	
3223	0	34640	
3224	0	34612	
3225	0	34868	
3226	0	35056	
3227	0	34688	
3228	0	34012	
3229	0	33100	
3230	0	32372	
3231	0	31852	
3232	0	31548	
3233	0	31232	
3234	0	31228	
3235	0	31640	
3236	0	32648	
3237	0	33264	
3238	0	33576	
3239	0	33584	
3240	0	32660	
3241	0	32430	
3242	0	32792	
3243	0	32984	
3244	0	32976	
3245	0	32792	
3246	0	32712	
3247	0	33066	
3248	0	33600	
3249	0	33648	
3250	0	34060	
3251	0	34684	
3252	0	34492	
3253	0	34350	
3254	0	34784	
3255	0	35332	
3256	0	35296	
3257	0	34676	
3258	0	33920	
3259	0	32344	
3260	0	30376	
3261	0	28684	
3262	0	27644	
3263	0	27248	
3264	0	26092	
3265	0	26292	
3266	0	27960	
3267	0	30068	
3268	0	31600	
3269	0	33482	
3270	0	35624	
3271	0	37280	
3272	0	37488	
3273	0	36808	
3274	0	36304	
3275	0	35684	
3276	0	34916	
3277	0	34456	
3278	0	34552	
3279	0	35120	
3280	0	35536	
3281	0	35460	
3282	0	34814	
3283	0	33608	
3284	0	32036	
3285	0	30264	
3286	0	29256	
3287	0	29168	
3288	0	29800	
3289	0	30576	
3290	0	31536	
3291	0	32456	
3292	0	32436	
3293	0	31676	
3294	0	30884	
3295	0	30584	
3296	0	30664	
3297	0	31396	
3298	0	32264	
3299	0	32588	
3300	0	32852	
3301	0	32800	
3302	0	32264	
3303	0	31592	
3304	0	31544	
3305	0	32024	
3306	0	32524	
3307	0	33388	
3308	0	34104	
3309	0	35168	
3310	0	36336	
3311	0	36656	
3312	0	36196	
3313	0	35236	
3314	0	33952	
3315	0	32628	
3316	0	31084	
3317	0	29796	
3318	0	29192	
3319	0	29424	
3320	0	30012	
3321	0	30500	
3322	0	31514	
3323	0	33056	
3324	0	34864	
3325	0	36228	
3326	0	36856	
3327	0	36608	
3328	0	35952	
3329	0	35296	
3330	0	34956	
3331	0	34464	
3332	0	34136	
3333	0	33512	
3334	0	32684	
3335	0	32168	
3336	0	31748	
3337	0	30864	
3338	0	30212	
3339	0	30120	
3340	0	30408	
3341	0	30680	
3342	0	31012	
3343	0	31124	
3344	0	30344	
3345	0	28552	
3346	0	27416	
3347	0	27308	
3348	0	27836	
3349	0	28772	
3350	0	30704	
3351	0	33532	
3352	0	36048	
3353	0	37208	
3354	0	37544	
3355	0	37476	
3356	0	37376	
3357	0	37400	
3358	0	37636	
3359	0	37544	
3360	0	37112	
3361	0	36784	
3362	0	36248	
3363	0	35456	
3364	0	34816	
3365	0	34368	
3366	0	33396	
3367	0	31768	
3368	0	30368	
3369	0	29656	
3370	0	29500	
3371	0	29864	
3372	0	30720	
3373	0	31644	
3374	0	31944	
3375	0	32192	
3376	0	32560	
3377	0	32684	
3378	0	32992	
3379	0	33500	
3380	0	33876	
3381	0	34464	
3382	0	34932	
3383	0	35256	
3384	0	35616	
3385	0	36240	
3386	0	36636	
3387	0	36576	
3388	0	35504	
3389	0	33652	
3390	0	31488	
3391	0	29042	
3392	0	26724	
3393	0	24972	
3394	0	24908	
3395	0	26696	
3396	0	29164	
3397	0	31460	
3398	0	33668	
3399	0	34108	
3400	0	33432	
3401	0	32932	
3402	0	33000	
3403	0	33728	
3404	0	35354	
3405	0	36544	
3406	0	37444	
3407	0	37444	
3408	0	37148	
3409	0	36824	
3410	0	36792	
3411	0	36856	
3412	0	36948	
3413	0	36432	
3414	0	35962	
3415	0	35264	
3416	0	34168	
3417	0	33716	
3418	0	33964	
3419	0	34418	
3420	0	34762	
3421	0	34280	
3422	0	32812	
3423	0	31232	
3424	0	30010	
3425	0	29562	
3426	0	29688	
3427	0	30264	
3428	0	30860	
3429	0	31600	
3430	0	32344	
3431	0	33104	
3432	0	33240	
3433	0	32872	
3434	0	32836	
3435	0	33680	
3436	0	34272	
3437	0	34652	
3438	0	34880	
3439	0	35520	
3440	0	36120	
3441	0	35980	
3442	0	35564	
3443	0	35152	
3444	0	34480	
3445	0	33380	
3446	0	31944	
3447	0	30888	
3448	0	30504	
3449	0	30512	
3450	0	30792	
3451	0	31396	
3452	0	32020	
3453	0	32216	
3454	0	31760	
3455	0	31004	
3456	0	30136	
3457	0	28896	
3458	0	27856	
3459	0	27108	
3460	0	27124	
3461	0	28092	
3462	0	30032	
3463	0	32705	
3464	0	34864	
3465	0	36252	
3466	0	36120	
3467	0	34952	
3468	0	33884	
3469	0	33132	
3470	0	32796	
3471	0	32632	
3472	0	32540	
3473	0	32660	
3474	0	33130	
3475	0	33620	
3476	0	33668	
3477	0	33456	
3478	0	33056	
3479	0	32976	
3480	0	32880	
3481	0	32588	
3482	0	32464	
3483	0	32528	
3484	0	32500	
3485	0	32816	
3486	0	33216	
3487	0	33720	
3488	0	34060	
3489	0	34268	
3490	0	33836	
3491	0	33404	
3492	0	32964	
3493	0	32044	
3494	0	31072	
3495	0	30088	
3496	0	29524	
3497	0	29512	
3498	0	29388	
3499	0	29436	
3500	0	30768	
3501	0	32088	
3502	0	32960	
3503	0	33832	
3504	0	34468	
3505	0	34740	
3506	0	34600	
3507	0	34240	
3508	0	34504	
3509	0	35952	
3510	0	37720	
3511	0	39048	
3512	0	39344	
3513	0	39080	
3514	0	38452	
3515	0	37616	
3516	0	37092	
3517	0	36432	
3518	0	35946	
3519	0	35592	
3520	0	34872	
3521	0	33852	
3522	0	33096	
3523	0	32964	
3524	0	32800	
3525	0	32660	
3526	0	32912	
3527	0	33464	
3528	0	33984	
3529	0	34936	
3530	0	35896	
3531	0	36600	
3532	0	37096	
3533	0	36772	
3534	0	35952	
3535	0	35276	
3536	0	34840	
3537	0	34352	
3538	0	33616	
3539	0	32448	
3540	0	31088	
3541	0	29530	
3542	0	28240	
3543	0	27588	
3544	0	27792	
3545	0	27978	
3546	0	28108	
3547	0	28756	
3548	0	29732	
3549	0	31160	
3550	0	33384	
3551	0	36028	
3552	0	38028	
3553	0	39072	
3554	0	39488	
3555	0	39168	
3556	0	38088	
3557	0	36860	
3558	0	35956	
3559	0	35448	
3560	0	35088	
3561	0	34604	
3562	0	33928	
3563	0	33422	
3564	0	32864	
3565	0	32092	
3566	0	31472	
3567	0	30668	
3568	0	30244	
3569	0	30156	
3570	0	30656	
3571	0	31740	
3572	0	32328	
3573	0	32968	
3574	0	33664	
3575	0	34376	
3576	0	34824	
3577	0	34516	
3578	0	33736	
3579	0	32724	
3580	0	31968	
3581	0	31112	
3582	0	30232	
3583	0	29604	
3584	0	29176	
3585	0	29048	
3586	0	29376	
3587	0	30396	
3588	0	31674	
3589	0	33256	
3590	0	34528	
3591	0	35252	
3592	0	35232	
3593	0	34876	
3594	0	33932	
3595	0	32172	
3596	0	30360	
3597	0	29132	
3598	0	28346	
3599	0	27928	
3600	0	28448	
3601	0	30220	
3602	0	32696	
3603	0	35088	
3604	0	36576	
3605	0	37696	
3606	0	38048	
3607	0	37392	
3608	0	36340	
3609	0	35632	
3610	0	35416	
3611	0	35176	
3612	0	34820	
3613	0	33992	
3614	0	32924	
3615	0	31916	
3616	0	30860	
3617	0	30042	
3618	0	29468	
3619	0	29252	
3620	0	29512	
3621	0	30442	
3622	0	31616	
3623	0	32876	
3624	0	33456	
3625	0	33496	
3626	0	32520	
3627	0	31124	
3628	0	30215	
3629	0	30096	
3630	0	30952	
3631	0	32596	
3632	0	34688	
3633	0	36544	
3634	0	37412	
3635	0	37248	
3636	0	36764	
3637	0	36112	
3638	0	35368	
3639	0	34304	
3640	0	33408	
3641	0	32592	
3642	0	31856	
3643	0	31448	
3644	0	31816	
3645	0	31712	
3646	0	31268	
3647	0	30928	
3648	0	31048	
3649	0	31404	
3650	0	32036	
3651	0	32736	
3652	0	33676	
3653	0	34424	
3654	0	34704	
3655	0	34952	
3656	0	35388	
3657	0	35992	
3658	0	35992	
3659	0	35770	
3660	0	35564	
3661	0	35176	
3662	0	34672	
3663	0	34104	
3664	0	33628	
3665	0	33056	
3666	0	32192	
3667	0	31436	
3668	0	30488	
3669	0	29564	
3670	0	29316	
3671	0	29848	
3672	0	30852	
3673	0	31796	
3674	0	32344	
3675	0	32656	
3676	0	32824	
3677	0	33104	
3678	0	33064	
3679	0	33328	
3680	0	34332	
3681	0	35320	
3682	0	35704	
3683	0	35764	
3684	0	35816	
3685	0	35556	
3686	0	34720	
3687	0	34100	
3688	0	33260	
3689	0	32128	
3690	0	31360	
3691	0	31112	
3692	0	30568	
3693	0	29204	
3694	0	27620	
3695	0	27156	
3696	0	27984	
3697	0	29636	
3698	0	32084	
3699	0	34804	
3700	0	36896	
3701	0	37796	
3702	0	37448	
3703	0	36750	
3704	0	36076	
3705	0	35112	
3706	0	34544	
3707	0	34436	
3708	0	34856	
3709	0	35440	
3710	0	35376	
3711	0	34736	
3712	0	33824	
3713	0	32808	
3714	0	32032	
3715	0	31708	
3716	0	31786	
3717	0	32512	
3718	0	33384	
3719	0	33969	
3720	0	34460	
3721	0	34432	
3722	0	34272	
3723	0	34296	
3724	0	34624	
3725	0	35060	
3726	0	35304	
3727	0	35004	
3728	0	34760	
3729	0	34584	
3730	0	34880	
3731	0	35488	
3732	0	35812	
3733	0	35636	
3734	0	34232	
3735	0	32700	
3736	0	31560	
3737	0	30560	
3738	0	29944	
3739	0	30000	
3740	0	30576	
3741	0	31476	
3742	0	32168	
3743	0	33284	
3744	0	34512	
3745	0	35320	
3746	0	35824	
3747	0	36304	
3748	0	36020	
3749	0	35324	
3750	0	34568	
3751	0	34044	
3752	0	34280	
3753	0	34808	
3754	0	34324	
3755	0	33648	
3756	0	33172	
3757	0	32496	
3758	0	31952	
3759	0	32506	
3760	0	33828	
3761	0	35052	
3762	0	35688	
3763	0	36432	
3764	0	37128	
3765	0	37064	
3766	0	36528	
3767	0	36044	
3768	0	35792	
3769	0	35264	
3770	0	34164	
3771	0	32122	
3772	0	29884	
3773	0	28048	
3774	0	26864	
3775	0	27528	
3776	0	30120	
3777	0	33864	
3778	0	37652	
3779	0	39800	
3780	0	39916	
3781	0	39644	
3782	0	39760	
3783	0	39584	
3784	0	38952	
3785	0	37644	
3786	0	36176	
3787	0	34896	
3788	0	34016	
3789	0	33728	
3790	0	34055	
3791	0	34760	
3792	0	35060	
3793	0	34412	
3794	0	33464	
3795	0	33282	
3796	0	33928	
3797	0	35016	
3798	0	35992	
3799	0	36164	
3800	0	36200	
3801	0	36008	
3802	0	35436	
3803	0	34380	
3804	0	33108	
3805	0	31996	
3806	0	31072	
3807	0	30396	
3808	0	30824	
3809	0	32052	
3810	0	33100	
3811	0	33928	
3812	0	34292	
3813	0	34384	
3814	0	34188	
3815	0	34192	
3816	0	34496	
3817	0	34826	
3818	0	34966	
3819	0	34720	
3820	0	34880	
3821	0	35152	
3822	0	35480	
3823	0	35772	
3824	0	35780	
3825	0	35592	
3826	0	35188	
3827	0	34544	
3828	0	33988	
3829	0	33432	
3830	0	33088	
3831	0	32560	
3832	0	31728	
3833	0	30892	
3834	0	29880	
3835	0	29004	
3836	0	28708	
3837	0	28773	
3838	0	29080	
3839	0	29802	
3840	0	30900	
3841	0	31676	
3842	0	32192	
3843	0	32720	
3844	0	32792	
3845	0	32128	
3846	0	32040	
3847	0	32176	
3848	0	32796	
3849	0	33594	
3850	0	33976	
3851	0	33156	
3852	0	31920	
3853	0	30458	
3854	0	29068	
3855	0	28276	
3856	0	28484	
3857	0	29660	
3858	0	30666	
3859	0	31640	
3860	0	32652	
3861	0	33128	
3862	0	32432	
3863	0	31178	
3864	0	30144	
3865	0	29672	
3866	0	29816	
3867	0	30232	
3868	0	30184	
3869	0	30000	
3870	0	29852	
3871	0	30100	
3872	0	30820	
3873	0	31440	
3874	0	32204	
3875	0	32514	
3876	0	32672	
3877	0	32780	
3878	0	32684	
3879	0	32592	
3880	0	32536	
3881	0	32508	
3882	0	32532	
3883	0	32448	
3884	0	32260	
3885	0	32192	
3886	0	32052	
3887	0	32368	
3888	0	32904	
3889	0	32696	
3890	0	32008	
3891	0	31344	
3892	0	31072	
3893	0	30852	
3894	0	30540	
3895	0	30936	
3896	0	31620	
3897	0	31764	
3898	0	31964	
3899	0	32372	
3900	0	32648	
3901	0	32440	
3902	0	31672	
3903	0	30668	
3904	0	29668	
3905	0	28416	
3906	0	27214	
3907	0	26732	
3908	0	27180	
3909	0	28584	
3910	0	30648	
3911	0	32412	
3912	0	34016	
3913	0	34896	
3914	0	34832	
3915	0	34504	
3916	0	34608	
3917	0	34588	
3918	0	33960	
3919	0	33292	
3920	0	33132	
3921	0	32788	
3922	0	32344	
3923	0	31760	
3924	0	30948	
3925	0	30104	
3926	0	29170	
3927	0	28590	
3928	0	28352	
3929	0	28172	
3930	0	28136	
3931	0	28540	
3932	0	29368	
3933	0	30712	
3934	0	32212	
3935	0	33440	
3936	0	34028	
3937	0	34072	
3938	0	34160	
3939	0	34660	
3940	0	35248	
3941	0	35828	
3942	0	35944	
3943	0	35036	
3944	0	33488	
3945	0	31816	
3946	0	30356	
3947	0	29060	
3948	0	28248	
3949	0	28204	
3950	0	28900	
3951	0	29560	
3952	0	29668	
3953	0	29740	
3954	0	29948	
3955	0	30408	
3956	0	31244	
3957	0	31472	
3958	0	31368	
3959	0	31456	
3960	0	31788	
3961	0	32228	
3962	0	31898	
3963	0	31532	
3964	0	30952	
3965	0	30716	
3966	0	31028	
3967	0	31212	
3968	0	31556	
3969	0	32208	
3970	0	33072	
3971	0	33448	
3972	0	33472	
3973	0	33880	
3974	0	33992	
3975	0	33552	
3976	0	32756	
3977	0	31772	
3978	0	31066	
3979	0	31092	
3980	0	31556	
3981	0	32368	
3982	0	33588	
3983	0	34456	
3984	0	34800	
3985	0	34836	
3986	0	34332	
3987	0	33792	
3988	0	33376	
3989	0	33264	
3990	0	33604	
3991	0	33512	
3992	0	33060	
3993	0	32624	
3994	0	32216	
3995	0	32064	
3996	0	31992	
3997	0	31472	
3998	0	30156	
3999	0	28720	
4000	0	27665	
4001	0	27352	
4002	0	27884	
4003	0	29064	
4004	0	30616	
4005	0	31324	
4006	0	31468	
4007	0	31516	
4008	0	31762	
4009	0	31812	
4010	0	32160	
4011	0	33272	
4012	0	34792	
4013	0	35456	
4014	0	35364	
4015	0	34456	
4016	0	33156	
4017	0	32080	
4018	0	31472	
4019	0	31672	
4020	0	32624	
4021	0	33260	
4022	0	33914	
4023	0	34098	
4024	0	34176	
4025	0	34352	
4026	0	34128	
4027	0	33608	
4028	0	33334	
4029	0	33184	
4030	0	33300	
4031	0	33036	
4032	0	32276	
4033	0	31264	
4034	0	30712	
4035	0	30712	
4036	0	30940	
4037	0	31116	
4038	0	31468	
4039	0	31736	
4040	0	31796	
4041	0	31544	
4042	0	31224	
4043	0	31388	
4044	0	31804	
4045	0	31904	
4046	0	32112	
4047	0	32472	
4048	0	32592	
4049	0	31608	
4050	0	30930	
4051	0	30912	
4052	0	31280	
4053	0	31628	
4054	0	32120	
4055	0	32648	
4056	0	33824	
4057	0	34960	
4058	0	35892	
4059	0	36312	
4060	0	36156	
4061	0	35648	
4062	0	34792	
4063	0	33772	
4064	0	32688	
4065	0	31932	
4066	0	31812	
4067	0	32156	
4068	0	32736	
4069	0	33336	
4070	0	33608	
4071	0	33032	
4072	0	31924	
4073	0	30456	
4074	0	29240	
4075	0	28412	
4076	0	28320	
4077	0	28740	
4078	0	29024	
4079	0	29472	
4080	0	29992	
4081	0	30494	
4082	0	31168	
4083	0	31048	
4084	0	30120	
4085	0	29176	
4086	0	28660	
4087	0	28868	
4088	0	29836	
4089	0	32120	
4090	0	35176	
4091	0	37484	
4092	0	38568	
4093	0	38196	
4094	0	37480	
4095	0	36860	
4096	0	35624	
4097	0	34132	
4098	0	32372	
4099	0	30852	
4100	0	30212	
4101	0	30128	
4102	0	30524	
4103	0	31152	
4104	0	31768	
4105	0	31984	
4106	0	32092	
4107	0	32752	
4108	0	33608	
4109	0	34456	
4110	0	35540	
4111	0	36304	
4112	0	36288	
4113	0	35552	
4114	0	34172	
4115	0	32864	
4116	0	31848	
4117	0	31256	
4118	0	31040	
4119	0	30416	
4120	0	29648	
4121	0	29384	
4122	0	29428	
4123	0	29816	
4124	0	31060	
4125	0	32508	
4126	0	33264	
4127	0	33512	
4128	0	33700	
4129	0	33996	
4130	0	34632	
4131	0	34712	
4132	0	34696	
4133	0	34496	
4134	0	33954	
4135	0	32976	
4136	0	31704	
4137	0	30024	
4138	0	28356	
4139	0	27976	
4140	0	28420	
4141	0	29524	
4142	0	31648	
4143	0	33570	
4144	0	34568	
4145	0	35068	
4146	0	35112	
4147	0	34808	
4148	0	34216	
4149	0	33632	
4150	0	33442	
4151	0	33036	
4152	0	32764	
4153	0	32384	
4154	0	31920	
4155	0	31816	
4156	0	31532	
4157	0	31776	
4158	0	32996	
4159	0	34360	
4160	0	35696	
4161	0	36724	
4162	0	36776	
4163	0	36106	
4164	0	34856	
4165	0	33344	
4166	0	32492	
4167	0	32004	
4168	0	32080	
4169	0	32220	
4170	0	32076	
4171	0	31920	
4172	0	31544	
4173	0	31040	
4174	0	30556	
4175	0	30176	
4176	0	30060	
4177	0	30176	
4178	0	30696	
4179	0	30504	
4180	0	30208	
4181	0	30076	
4182	0	30034	
4183	0	29844	
4184	0	30928	
4185	0	33116	
4186	0	34796	
4187	0	35032	
4188	0	34772	
4189	0	33884	
4190	0	32176	
4191	0	30552	
4192	0	29868	
4193	0	30488	
4194	0	32000	
4195	0	33444	
4196	0	34800	
4197	0	35744	
4198	0	35940	
4199	0	35768	
4200	0	35472	
4201	0	35240	
4202	0	35204	
4203	0	34904	
4204	0	34428	
4205	0	33238	
4206	0	32014	
4207	0	31160	
4208	0	30920	
4209	0	30880	
4210	0	30996	
4211	0	31312	
4212	0	31968	
4213	0	32730	
4214	0	32976	
4215	0	32704	
4216	0	31912	
4217	0	31240	
4218	0	30826	
4219	0	30556	
4220	0	30960	
4221	0	30916	
4222	0	30490	
4223	0	30736	
4224	0	31184	
4225	0	31676	
4226	0	32216	
4227	0	33184	
4228	0	34386	
4229	0	35516	
4230	0	35980	
4231	0	36460	
4232	0	36540	
4233	0	36132	
4234	0	35498	
4235	0	34772	
4236	0	34024	
4237	0	33296	
4238	0	32532	
4239	0	32160	
4240	0	31800	
4241	0	32076	
4242	0	32832	
4243	0	34292	
4244	0	35364	
4245	0	35194	
4246	0	34256	
4247	0	33036	
4248	0	31992	
4249	0	31680	
4250	0	32064	
4251	0	32432	
4252	0	32576	
4253	0	32476	
4254	0	31996	
4255	0	31520	
4256	0	31668	
4257	0	32544	
4258	0	33400	
4259	0	34392	
4260	0	35104	
4261	0	35356	
4262	0	35248	
4263	0	34884	
4264	0	34088	
4265	0	33048	
4266	0	32032	
4267	0	31274	
4268	0	31180	
4269	0	31760	
4270	0	32706	
4271	0	33508	
4272	0	34464	
4273	0	34524	
4274	0	33432	
4275	0	32408	
4276	0	32196	
4277	0	32148	
4278	0	32472	
4279	0	33240	
4280	0	33808	
4281	0	33496	
4282	0	33144	
4283	0	32416	
4284	0	30826	
4285	0	29384	
4286	0	28948	
4287	0	29864	
4288	0	30952	
4289	0	32308	
4290	0	33844	
4291	0	34836	
4292	0	34396	
4293	0	33036	
4294	0	32036	
4295	0	32396	
4296	0	33260	
4297	0	33858	
4298	0	34504	
4299	0	34480	
4300	0	33952	
4301	0	33464	
4302	0	33596	
4303	0	33798	
4304	0	33812	
4305	0	34236	
4306	0	35168	
4307	0	35736	
4308	0	36020	
4309	0	36228	
4310	0	36376	
4311	0	36138	
4312	0	35324	
4313	0	34272	
4314	0	33268	
4315	0	32320	
4316	0	31604	
4317	0	31160	
4318	0	30512	
4319	0	30096	
4320	0	30460	
4321	0	31338	
4322	0	31656	
4323	0	31716	
4324	0	31840	
4325	0	32016	
4326	0	32078	
4327	0	32000	
4328	0	31828	
4329	0	32058	
4330	0	32552	
4331	0	33060	
4332	0	33720	
4333	0	34232	
4334	0	34312	
4335	0	33792	
4336	0	32664	
4337	0	31432	
4338	0	30720	
4339	0	30360	
4340	0	30552	
4341	0	31489	
4342	0	32472	
4343	0	33108	
4344	0	33372	
4345	0	33424	
4346	0	33452	
4347	0	33512	
4348	0	33680	
4349	0	33820	
4350	0	33680	
4351	0	33016	
4352	0	32284	
4353	0	31768	
4354	0	31364	
4355	0	30946	
4356	0	30760	
4357	0	30568	
4358	0	30060	
4359	0	29724	
4360	0	30184	
4361	0	31288	
4362	0	32304	
4363	0	33104	
4364	0	33464	
4365	0	33420	
4366	0	33520	
4367	0	33640	
4368	0	34056	
4369	0	34460	
4370	0	34756	
4371	0	34900	
4372	0	34686	
4373	0	34136	
4374	0	33032	
4375	0	32176	
4376	0	31184	
4377	0	29792	
4378	0	28544	
4379	0	28120	
4380	0	27512	
4381	0	27788	
4382	0	28920	
4383	0	30392	
4384	0	31520	
4385	0	31726	
4386	0	31544	
4387	0	31480	
4388	0	32104	
4389	0	32800	
4390	0	34032	
4391	0	35588	
4392	0	37472	
4393	0	38592	
4394	0	38928	
4395	0	38868	
4396	0	38860	
4397	0	38772	
4398	0	38992	
4399	0	39328	
4400	0	39204	
4401	0	38560	
4402	0	37276	
4403	0	35660	
4404	0	33834	
4405	0	32452	
4406	0	31836	
4407	0	32284	
4408	0	33748	
4409	0	34908	
4410	0	35680	
4411	0	36412	
4412	0	36816	
4413	0	36760	
4414	0	36536	
4415	0	36416	
4416	0	36072	
4417	0	35548	
4418	0	34564	
4419	0	32976	
4420	0	31492	
4421	0	30216	
4422	0	29724	
4423	0	29732	
4424	0	29376	
4425	0	29532	
4426	0	29784	
4427	0	29568	
4428	0	30056	
4429	0	31524	
4430	0	33292	
4431	0	34628	
4432	0	35636	
4433	0	36336	
4434	0	36032	
4435	0	34472	
4436	0	32816	
4437	0	32012	
4438	0	31688	
4439	0	31860	
4440	0	32584	
4441	0	33376	
4442	0	33764	
4443	0	33736	
4444	0	33636	
4445	0	33156	
4446	0	32300	
4447	0	32096	
4448	0	31968	
4449	0	31072	
4450	0	30140	
4451	0	29644	
4452	0	29364	
4453	0	29740	
4454	0	30864	
4455	0	32212	
4456	0	33456	
4457	0	34392	
4458	0	34332	
4459	0	34200	
4460	0	34160	
4461	0	33616	
4462	0	32752	
4463	0	32440	
4464	0	32416	
4465	0	32484	
4466	0	32076	
4467	0	31724	
4468	0	31700	
4469	0	31570	
4470	0	31264	
4471	0	31496	
4472	0	32600	
4473	0	33320	
4474	0	33301	
4475	0	33140	
4476	0	32696	
4477	0	32992	
4478	0	33068	
4479	0	33400	
4480	0	34468	
4481	0	35114	
4482	0	35292	
4483	0	35264	
4484	0	34608	
4485	0	33864	
4486	0	33336	
4487	0	33284	
4488	0	33808	
4489	0	34128	
4490	0	33992	
4491	0	33968	
4492	0	33904	
4493	0	33436	
4494	0	32824	
4495	0	32044	
4496	0	31388	
4497	0	30316	
4498	0	28516	
4499	0	27524	
4500	0	28104	
4501	0	29660	
4502	0	31644	
4503	0	34244	
4504	0	36136	
4505	0	36656	
4506	0	36400	
4507	0	35904	
4508	0	35320	
4509	0	34396	
4510	0	33412	
4511	0	31900	
4512	0	29808	
4513	0	28178	
4514	0	27058	
4515	0	26808	
4516	0	28008	
4517	0	30290	
4518	0	32684	
4519	0	34088	
4520	0	34880	
4521	0	34624	
4522	0	34024	
4523	0	34092	
4524	0	34748	
4525	0	35068	
4526	0	35134	
4527	0	35402	
4528	0	35084	
4529	0	34400	
4530	0	33836	
4531	0	33428	
4532	0	33172	
4533	0	32740	
4534	0	32216	
4535	0	32058	
4536	0	32420	
4537	0	32628	
4538	0	32584	
4539	0	32440	
4540	0	32840	
4541	0	33680	
4542	0	34228	
4543	0	34744	
4544	0	34972	
4545	0	34400	
4546	0	33502	
4547	0	32668	
4548	0	31312	
4549	0	30136	
4550	0	29148	
4551	0	28417	
4552	0	28126	
4553	0	29081	
4554	0	31184	
4555	0	33010	
4556	0	34160	
4557	0	34680	
4558	0	34620	
4559	0	34356	
4560	0	34536	
4561	0	34956	
4562	0	34752	
4563	0	34132	
4564	0	33564	
4565	0	33384	
4566	0	33240	
4567	0	33666	
4568	0	34856	
4569	0	36292	
4570	0	37144	
4571	0	36860	
4572	0	35844	
4573	0	34592	
4574	0	33148	
4575	0	31760	
4576	0	30900	
4577	0	30696	
4578	0	30736	
4579	0	30512	
4580	0	29968	
4581	0	29256	
4582	0	28900	
4583	0	29520	
4584	0	30980	
4585	0	32188	
4586	0	33038	
4587	0	34496	
4588	0	35716	
4589	0	36644	
4590	0	37456	
4591	0	37440	
4592	0	36770	
4593	0	35968	
4594	0	35578	
4595	0	35204	
4596	0	34616	
4597	0	34052	
4598	0	33884	
4599	0	33840	
4600	0	33800	
4601	0	33516	
4602	0	33040	
4603	0	32620	
4604	0	32216	
4605	0	32088	
4606	0	31996	
4607	0	31828	
4608	0	32140	
4609	0	33076	
4610	0	33940	
4611	0	34772	
4612	0	35452	
4613	0	35848	
4614	0	35980	
4615	0	35784	
4616	0	35608	
4617	0	35376	
4618	0	35036	
4619	0	34712	
4620	0	34516	
4621	0	34364	
4622	0	34140	
4623	0	33652	
4624	0	33192	
4625	0	32620	
4626	0	31640	
4627	0	30720	
4628	0	30465	
4629	0	30924	
4630	0	31516	
4631	0	31612	
4632	0	31944	
4633	0	32592	
4634	0	32472	
4635	0	31932	
4636	0	31876	
4637	0	32328	
4638	0	33432	
4639	0	34772	
4640	0	35520	
4641	0	35336	
4642	0	34304	
4643	0	33600	
4644	0	33236	
4645	0	33724	
4646	0	34520	
4647	0	35224	
4648	0	35472	
4649	0	35112	
4650	0	34660	
4651	0	34432	
4652	0	34776	
4653	0	35104	
4654	0	35776	
4655	0	36804	
4656	0	37288	
4657	0	36408	
4658	0	35608	
4659	0	35376	
4660	0	35260	
4661	0	34840	
4662	0	34708	
4663	0	35156	
4664	0	35996	
4665	0	36632	
4666	0	36552	
4667	0	35872	
4668	0	35100	
4669	0	34484	
4670	0	33848	
4671	0	33184	
4672	0	32922	
4673	0	33180	
4674	0	33660	
4675	0	33520	
4676	0	33016	
4677	0	32712	
4678	0	32744	
4679	0	32900	
4680	0	33000	
4681	0	33588	
4682	0	34616	
4683	0	35704	
4684	0	36400	
4685	0	36768	
4686	0	36828	
4687	0	36552	
4688	0	36236	
4689	0	35590	
4690	0	34844	
4691	0	34138	
4692	0	33360	
4693	0	32704	
4694	0	32104	
4695	0	31496	
4696	0	31136	
4697	0	31244	
4698	0	32036	
4699	0	33352	
4700	0	34188	
4701	0	34716	
4702	0	34648	
4703	0	33956	
4704	0	33060	
4705	0	32296	
4706	0	32304	
4707	0	32480	
4708	0	32236	
4709	0	31760	
4710	0	31656	
4711	0	32308	
4712	0	32900	
4713	0	32824	
4714	0	32348	
4715	0	32060	
4716	0	32108	
4717	0	31976	
4718	0	31636	
4719	0	31604	
4720	0	31620	
4721	0	31313	
4722	0	30700	
4723	0	29672	
4724	0	28286	
4725	0	26880	
4726	0	26232	
4727	0	27138	
4728	0	29336	
4729	0	32224	
4730	0	35576	
4731	0	37426	
4732	0	37716	
4733	0	36592	
4734	0	34424	
4735	0	31612	
4736	0	29208	
4737	0	27680	
4738	0	27448	
4739	0	28292	
4740	0	30004	
4741	0	31856	
4742	0	32776	
4743	0	32920	
4744	0	33050	
4745	0	33536	
4746	0	33944	
4747	0	33644	
4748	0	32916	
4749	0	31880	
4750	0	30360	
4751	0	29104	
4752	0	28096	
4753	0	27136	
4754	0	26968	
4755	0	27996	
4756	0	29976	
4757	0	31320	
4758	0	32072	
4759	0	32120	
4760	0	32088	
4761	0	32080	
4762	0	31748	
4763	0	31556	
4764	0	31904	
4765	0	32008	
4766	0	31984	
4767	0	32248	
4768	0	33418	
4769	0	34500	
4770	0	35152	
4771	0	35432	
4772	0	35164	
4773	0	34268	
4774	0	33176	
4775	0	32580	
4776	0	32124	
4777	0	31772	
4778	0	31396	
4779	0	30810	
4780	0	30384	
4781	0	29788	
4782	0	29156	
4783	0	28840	
4784	0	28600	
4785	0	28396	
4786	0	28788	
4787	0	29968	
4788	0	31688	
4789	0	33020	
4790	0	33432	
4791	0	33292	
4792	0	32788	
4793	0	31844	
4794	0	30788	
4795	0	30344	
4796	0	30228	
4797	0	29688	
4798	0	29472	
4799	0	29574	
4800	0	29400	
4801	0	29376	
4802	0	30196	
4803	0	31620	
4804	0	32336	
4805	0	33068	
4806	0	34232	
4807	0	35164	
4808	0	35712	
4809	0	36280	
4810	0	36572	
4811	0	36088	
4812	0	35368	
4813	0	34488	
4814	0	33448	
4815	0	32712	
4816	0	32112	
4817	0	31524	
4818	0	31404	
4819	0	31368	
4820	0	31648	
4821	0	31772	
4822	0	31700	
4823	0	31376	
4824	0	31036	
4825	0	30708	
4826	0	30328	
4827	0	30084	
4828	0	29996	
4829	0	29940	
4830	0	29464	
4831	0	28576	
4832	0	28364	
4833	0	28752	
4834	0	29472	
4835	0	30492	
4836	0	31096	
4837	0	31304	
4838	0	31744	
4839	0	31948	
4840	0	32264	
4841	0	33088	
4842	0	34076	
4843	0	34460	
4844	0	34288	
4845	0	34268	
4846	0	34668	
4847	0	34792	
4848	0	34992	
4849	0	35376	
4850	0	35090	
4851	0	33824	
4852	0	32380	
4853	0	31704	
4854	0	31336	
4855	0	31076	
4856	0	30928	
4857	0	30976	
4858	0	31016	
4859	0	30982	
4860	0	31400	
4861	0	32040	
4862	0	31956	
4863	0	31928	
4864	0	32288	
4865	0	32696	
4866	0	32836	
4867	0	32884	
4868	0	33212	
4869	0	33664	
4870	0	34232	
4871	0	34720	
4872	0	34876	
4873	0	34804	
4874	0	34556	
4875	0	34128	
4876	0	33744	
4877	0	33372	
4878	0	32876	
4879	0	32312	
4880	0	31680	
4881	0	30876	
4882	0	29908	
4883	0	29208	
4884	0	28760	
4885	0	28304	
4886	0	28316	
4887	0	28740	
4888	0	29336	
4889	0	30116	
4890	0	30452	
4891	0	30336	
4892	0	30124	
4893	0	30208	
4894	0	30476	
4895	0	30792	
4896	0	31188	
4897	0	32104	
4898	0	33272	
4899	0	34516	
4900	0	34964	
4901	0	34684	
4902	0	33908	
4903	0	32688	
4904	0	32080	
4905	0	32192	
4906	0	32636	
4907	0	33796	
4908	0	34796	
4909	0	35200	
4910	0	35102	
4911	0	34832	
4912	0	34472	
4913	0	33864	
4914	0	33672	
4915	0	33476	
4916	0	33048	
4917	0	33088	
4918	0	32600	
4919	0	31452	
4920	0	30116	
4921	0	29276	
4922	0	29188	
4923	0	29264	
4924	0	29868	
4925	0	30904	
4926	0	31962	
4927	0	32892	
4928	0	33764	
4929	0	34424	
4930	0	34488	
4931	0	33992	
4932	0	33452	
4933	0	33464	
4934	0	33888	
4935	0	34104	
4936	0	33884	
4937	0	33132	
4938	0	32184	
4939	0	31160	
4940	0	30490	
4941	0	30028	
4942	0	30052	
4943	0	30516	
4944	0	30616	
4945	0	30652	
4946	0	30664	
4947	0	30756	
4948	0	30580	
4949	0	30168	
4950	0	30204	
4951	0	30440	
4952	0	30944	
4953	0	31400	
4954	0	32080	
4955	0	33696	
4956	0	35336	
4957	0	35856	
4958	0	35354	
4959	0	34208	
4960	0	32912	
4961	0	32480	
4962	0	32788	
4963	0	33456	
4964	0	34172	
4965	0	34624	
4966	0	34744	
4967	0	34224	
4968	0	33392	
4969	0	32864	
4970	0	32492	
4971	0	32296	
4972	0	32238	
4973	0	32192	
4974	0	32472	
4975	0	32644	
4976	0	32538	
4977	0	32588	
4978	0	33380	
4979	0	34172	
4980	0	34708	
4981	0	34756	
4982	0	34336	
4983	0	33656	
4984	0	32892	
4985	0	32120	
4986	0	31560	
4987	0	31156	
4988	0	30892	
4989	0	30498	
4990	0	29914	
4991	0	29464	
4992	0	29064	
4993	0	28790	
4994	0	28924	
4995	0	29856	
4996	0	31296	
4997	0	32064	
4998	0	32432	
4999	0	32928	
5000	0	33424	
5001	0	33304	
5002	0	32888	
5003	0	33360	
5004	0	34348	
5005	0	34732	
5006	0	34584	
5007	0	34344	
5008	0	34128	
5009	0	33932	
5010	0	33872	
5011	0	33812	
5012	0	33264	
5013	0	32284	
5014	0	31168	
5015	0	30748	
5016	0	30700	
5017	0	31000	
5018	0	31496	
5019	0	31884	
5020	0	32332	
5021	0	32464	
5022	0	32412	
5023	0	32416	
5024	0	32376	
5025	0	32520	
5026	0	32772	
5027	0	33184	
5028	0	33816	
5029	0	34592	
5030	0	35000	
5031	0	34916	
5032	0	34768	
5033	0	34480	
5034	0	33856	
5035	0	32942	
5036	0	31848	
5037	0	30880	
5038	0	30048	
5039	0	29728	
5040	0	29804	
5041	0	29984	
5042	0	30212	
5043	0	30608	
5044	0	30724	
5045	0	30076	
5046	0	29216	
5047	0	29456	
5048	0	30664	
5049	0	31948	
5050	0	33392	
5051	0	34660	
5052	0	36232	
5053	0	37488	
5054	0	38040	
5055	0	38028	
5056	0	37312	
5057	0	36196	
5058	0	35412	
5059	0	34964	
5060	0	34624	
5061	0	34196	
5062	0	33504	
5063	0	32612	
5064	0	31520	
5065	0	30544	
5066	0	29872	
5067	0	29232	
5068	0	28956	
5069	0	29680	
5070	0	30772	
5071	0	31872	
5072	0	32612	
5073	0	32540	
5074	0	32264	
5075	0	31650	
5076	0	31140	
5077	0	31136	
5078	0	31476	
5079	0	32084	
5080	0	33098	
5081	0	33916	
5082	0	34024	
5083	0	33752	
5084	0	33084	
5085	0	32600	
5086	0	32852	
5087	0	33620	
5088	0	34252	
5089	0	34536	
5090	0	34316	
5091	0	34316	
5092	0	33900	
5093	0	33312	
5094	0	33080	
5095	0	33176	
5096	0	33524	
5097	0	33564	
5098	0	33288	
5099	0	33028	
5100	0	32608	
5101	0	31888	
5102	0	31192	
5103	0	30780	
5104	0	30658	
5105	0	30648	
5106	0	31500	
5107	0	32696	
5108	0	33392	
5109	0	33632	
5110	0	34080	
5111	0	34272	
5112	0	34260	
5113	0	34088	
5114	0	33780	
5115	0	32980	
5116	0	31936	
5117	0	30748	
5118	0	30080	
5119	0	29908	
5120	0	30644	
5121	0	32076	
5122	0	33904	
5123	0	35488	
5124	0	36324	
5125	0	35996	
5126	0	34940	
5127	0	34384	
5128	0	34232	
5129	0	33640	
5130	0	32940	
5131	0	32682	
5132	0	32356	
5133	0	31636	
5134	0	31052	
5135	0	31096	
5136	0	31400	
5137	0	31704	
5138	0	32240	
5139	0	32788	
5140	0	32564	
5141	0	31672	
5142	0	30564	
5143	0	30064	
5144	0	30228	
5145	0	31048	
5146	0	32756	
5147	0	34760	
5148	0	35776	
5149	0	36064	
5150	0	35512	
5151	0	34416	
5152	0	33665	
5153	0	33204	
5154	0	33408	
5155	0	34024	
5156	0	34840	
5157	0	35388	
5158	0	35360	
5159	0	35124	
5160	0	34700	
5161	0	34280	
5162	0	33840	
5163	0	33720	
5164	0	33553	
5165	0	33184	
5166	0	32592	
5167	0	32284	
5168	0	32796	
5169	0	33660	
5170	0	34480	
5171	0	34952	
5172	0	35236	
5173	0	34980	
5174	0	34324	
5175	0	33688	
5176	0	33324	
5177	0	32832	
5178	0	32464	
5179	0	32652	
5180	0	32664	
5181	0	32768	
5182	0	33192	
5183	0	33724	
5184	0	33848	
5185	0	33360	
5186	0	32704	
5187	0	32108	
5188	0	31992	
5189	0	32728	
5190	0	33200	
5191	0	33154	
5192	0	33304	
5193	0	33392	
5194	0	33552	
5195	0	33256	
5196	0	32440	
5197	0	31872	
5198	0	31544	
5199	0	31232	
5200	0	31148	
5201	0	31264	
5202	0	31556	
5203	0	32444	
5204	0	33400	
5205	0	34072	
5206	0	34992	
5207	0	35496	
5208	0	35436	
5209	0	35208	
5210	0	34744	
5211	0	34168	
5212	0	33836	
5213	0	34028	
5214	0	34272	
5215	0	34196	
5216	0	33964	
5217	0	33412	
5218	0	32520	
5219	0	31440	
5220	0	30346	
5221	0	29592	
5222	0	29460	
5223	0	30010	
5224	0	30768	
5225	0	31668	
5226	0	32610	
5227	0	33244	
5228	0	33964	
5229	0	34608	
5230	0	35140	
5231	0	35648	
5232	0	35700	
5233	0	35176	
5234	0	34442	
5235	0	33700	
5236	0	33056	
5237	0	32484	
5238	0	32096	
5239	0	31988	
5240	0	31816	
5241	0	31548	
5242	0	31468	
5243	0	31596	
5244	0	31800	
5245	0	32208	
5246	0	32688	
5247	0	33172	
5248	0	33252	
5249	0	33000	
5250	0	32960	
5251	0	33136	
5252	0	33128	
5253	0	33188	
5254	0	33040	
5255	0	32560	
5256	0	32256	
5257	0	31984	
5258	0	31876	
5259	0	31824	
5260	0	31968	
5261	0	32076	
5262	0	31768	
5263	0	31056	
5264	0	30248	
5265	0	29412	
5266	0	28672	
5267	0	28440	
5268	0	28948	
5269	0	29918	
5270	0	30852	
5271	0	31424	
5272	0	31620	
5273	0	31808	
5274	0	32116	
5275	0	32700	
5276	0	32712	
5277	0	31808	
5278	0	30708	
5279	0	30368	
5280	0	30928	
5281	0	31640	
5282	0	32936	
5283	0	34346	
5284	0	35768	
5285	0	37104	
5286	0	37840	
5287	0	37232	
5288	0	36208	
5289	0	35312	
5290	0	34428	
5291	0	33280	
5292	0	32741	
5293	0	33104	
5294	0	33948	
5295	0	34620	
5296	0	34708	
5297	0	35114	
5298	0	35840	
5299	0	36568	
5300	0	36408	
5301	0	35204	
5302	0	33416	
5303	0	32080	
5304	0	31392	
5305	0	31736	
5306	0	32568	
5307	0	33472	
5308	0	34880	
5309	0	36056	
5310	0	36672	
5311	0	37392	
5312	0	38096	
5313	0	38440	
5314	0	37984	
5315	0	36768	
5316	0	35552	
5317	0	34745	
5318	0	33964	
5319	0	33248	
5320	0	32200	
5321	0	31148	
5322	0	29996	
5323	0	29416	
5324	0	29636	
5325	0	30140	
5326	0	30816	
5327	0	31764	
5328	0	32912	
5329	0	33778	
5330	0	34288	
5331	0	34604	
5332	0	35016	
5333	0	35236	
5334	0	34616	
5335	0	33616	
5336	0	32844	
5337	0	32368	
5338	0	32556	
5339	0	33232	
5340	0	33264	
5341	0	33064	
5342	0	32872	
5343	0	32804	
5344	0	32512	
5345	0	32344	
5346	0	32142	
5347	0	31436	
5348	0	30796	
5349	0	30008	
5350	0	28952	
5351	0	27992	
5352	0	27640	
5353	0	28240	
5354	0	29912	
5355	0	31852	
5356	0	32696	
5357	0	32210	
5358	0	31280	
5359	0	30260	
5360	0	29824	
5361	0	30016	
5362	0	31496	
5363	0	32980	
5364	0	33928	
5365	0	34704	
5366	0	34948	
5367	0	35040	
5368	0	35080	
5369	0	35072	
5370	0	35224	
5371	0	35568	
5372	0	35624	
5373	0	35664	
5374	0	35772	
5375	0	35586	
5376	0	34984	
5377	0	34210	
5378	0	33618	
5379	0	33476	
5380	0	33268	
5381	0	32504	
5382	0	31336	
5383	0	30200	
5384	0	29380	
5385	0	29028	
5386	0	29608	
5387	0	30772	
5388	0	32228	
5389	0	33676	
5390	0	33948	
5391	0	33920	
5392	0	33636	
5393	0	33328	
5394	0	33556	
5395	0	34532	
5396	0	36012	
5397	0	37152	
5398	0	37680	
5399	0	37828	
5400	0	37680	
5401	0	37600	
5402	0	37456	
5403	0	36956	
5404	0	35860	
5405	0	34668	
5406	0	34036	
5407	0	34068	
5408	0	34588	
5409	0	35140	
5410	0	35000	
5411	0	33784	
5412	0	32168	
5413	0	31076	
5414	0	30676	
5415	0	30748	
5416	0	30796	
5417	0	30692	
5418	0	30896	
5419	0	30952	
5420	0	30984	
5421	0	30832	
5422	0	30784	
5423	0	31472	
5424	0	32256	
5425	0	32848	
5426	0	32768	
5427	0	32060	
5428	0	30848	
5429	0	30124	
5430	0	29936	
5431	0	30464	
5432	0	31240	
5433	0	31704	
5434	0	31994	
5435	0	32072	
5436	0	32232	
5437	0	31836	
5438	0	31856	
5439	0	31956	
5440	0	31820	
5441	0	31464	
5442	0	30996	
5443	0	30774	
5444	0	30816	
5445	0	31208	
5446	0	32092	
5447	0	32984	
5448	0	33637	
5449	0	34244	
5450	0	34600	
5451	0	34020	
5452	0	33292	
5453	0	33760	
5454	0	34968	
5455	0	35696	
5456	0	36068	
5457	0	35980	
5458	0	34732	
5459	0	33440	
5460	0	32284	
5461	0	31588	
5462	0	31010	
5463	0	30904	
5464	0	31592	
5465	0	32616	
5466	0	33520	
5467	0	34332	
5468	0	35108	
5469	0	35680	
5470	0	35664	
5471	0	35304	
5472	0	34916	
5473	0	34657	
5474	0	34376	
5475	0	34020	
5476	0	33132	
5477	0	31952	
5478	0	30812	
5479	0	29960	
5480	0	29728	
5481	0	29768	
5482	0	30192	
5483	0	30780	
5484	0	30956	
5485	0	31132	
5486	0	31560	
5487	0	32176	
5488	0	32808	
5489	0	33626	
5490	0	34068	
5491	0	34032	
5492	0	33840	
5493	0	34196	
5494	0	35180	
5495	0	36208	
5496	0	37116	
5497	0	37364	
5498	0	37304	
5499	0	37208	
5500	0	36692	
5501	0	35772	
5502	0	34628	
5503	0	33688	
5504	0	32568	
5505	0	31476	
5506	0	30840	
5507	0	30376	
5508	0	29648	
5509	0	29100	
5510	0	29257	
5511	0	30448	
5512	0	31392	
5513	0	31972	
5514	0	32944	
5515	0	34188	
5516	0	34788	
5517	0	34992	
5518	0	35600	
5519	0	36232	
5520	0	37328	
5521	0	38224	
5522	0	38334	
5523	0	38052	
5524	0	38146	
5525	0	37882	
5526	0	36858	
5527	0	35960	
5528	0	34936	
5529	0	34384	
5530	0	34560	
5531	0	34840	
5532	0	34064	
5533	0	32896	
5534	0	32072	
5535	0	31644	
5536	0	31108	
5537	0	30520	
5538	0	29858	
5539	0	29328	
5540	0	28972	
5541	0	28240	
5542	0	27956	
5543	0	28056	
5544	0	28648	
5545	0	29796	
5546	0	31996	
5547	0	34704	
5548	0	37488	
5549	0	39728	
5550	0	41068	
5551	0	40960	
5552	0	39648	
5553	0	38332	
5554	0	37380	
5555	0	36794	
5556	0	36216	
5557	0	35852	
5558	0	35876	
5559	0	36156	
5560	0	36064	
5561	0	36260	
5562	0	36000	
5563	0	35260	
5564	0	34116	
5565	0	32538	
5566	0	31376	
5567	0	31616	
5568	0	32642	
5569	0	34200	
5570	0	35792	
5571	0	37032	
5572	0	37212	
5573	0	36700	
5574	0	35796	
5575	0	34704	
5576	0	33880	
5577	0	33952	
5578	0	34600	
5579	0	34924	
5580	0	34970	
5581	0	34952	
5582	0	35090	
5583	0	34992	
5584	0	34784	
5585	0	34652	
5586	0	34212	
5587	0	33488	
5588	0	32768	
5589	0	32536	
5590	0	32776	
5591	0	33184	
5592	0	33792	
5593	0	34248	
5594	0	34076	
5595	0	33640	
5596	0	33164	
5597	0	32248	
5598	0	30500	
5599	0	28976	
5600	0	28328	
5601	0	27844	
5602	0	27448	
5603	0	27808	
5604	0	29368	
5605	0	30896	
5606	0	32304	
5607	0	34416	
5608	0	36712	
5609	0	38124	
5610	0	38684	
5611	0	38572	
5612	0	38250	
5613	0	37348	
5614	0	35792	
5615	0	33786	
5616	0	32010	
5617	0	30228	
5618	0	29240	
5619	0	29064	
5620	0	28860	
5621	0	28880	
5622	0	29160	
5623	0	29242	
5624	0	28492	
5625	0	27008	
5626	0	25380	
5627	0	24720	
5628	0	25660	
5629	0	27204	
5630	0	29540	
5631	0	32884	
5632	0	35268	
5633	0	36324	
5634	0	36764	
5635	0	36538	
5636	0	35876	
5637	0	34720	
5638	0	33532	
5639	0	32000	
5640	0	30292	
5641	0	28874	
5642	0	28004	
5643	0	27484	
5644	0	27468	
5645	0	27988	
5646	0	29028	
5647	0	30672	
5648	0	32026	
5649	0	32940	
5650	0	33916	
5651	0	34784	
5652	0	35072	
5653	0	34532	
5654	0	33568	
5655	0	32496	
5656	0	31332	
5657	0	30700	
5658	0	30448	
5659	0	30304	
5660	0	30192	
5661	0	30356	
5662	0	30480	
5663	0	30564	
5664	0	29954	
5665	0	28928	
5666	0	28276	
5667	0	27326	
5668	0	26372	
5669	0	26292	
5670	0	27276	
5671	0	29024	
5672	0	29956	
5673	0	30672	
5674	0	32176	
5675	0	33144	
5676	0	33804	
5677	0	34264	
5678	0	34916	
5679	0	35164	
5680	0	34820	
5681	0	34092	
5682	0	33256	
5683	0	32460	
5684	0	32084	
5685	0	31340	
5686	0	30180	
5687	0	29568	
5688	0	29240	
5689	0	29409	
5690	0	30380	
5691	0	32084	
5692	0	33800	
5693	0	34824	
5694	0	34736	
5695	0	34012	
5696	0	32804	
5697	0	31392	
5698	0	30264	
5699	0	29116	
5700	0	28616	
5701	0	29076	
5702	0	29700	
5703	0	30596	
5704	0	31834	
5705	0	33308	
5706	0	34436	
5707	0	34776	
5708	0	34536	
5709	0	34036	
5710	0	33928	
5711	0	34060	
5712	0	33832	
5713	0	32644	
5714	0	31196	
5715	0	29789	
5716	0	28508	
5717	0	28040	
5718	0	28360	
5719	0	29092	
5720	0	30000	
5721	0	31008	
5722	0	31600	
5723	0	32096	
5724	0	32048	
5725	0	31564	
5726	0	31404	
5727	0	31770	
5728	0	32304	
5729	0	32706	
5730	0	33196	
5731	0	33348	
5732	0	33292	
5733	0	33050	
5734	0	33578	
5735	0	34504	
5736	0	35332	
5737	0	35532	
5738	0	35220	
5739	0	35014	
5740	0	34872	
5741	0	34452	
5742	0	34128	
5743	0	33624	
5744	0	32548	
5745	0	31508	
5746	0	30776	
5747	0	30604	
5748	0	31104	
5749	0	31576	
5750	0	31580	
5751	0	31372	
5752	0	31104	
5753	0	30792	
5754	0	30668	
5755	0	30344	
5756	0	30156	
5757	0	30356	
5758	0	31060	
5759	0	32216	
5760	0	33340	
5761	0	33980	
5762	0	34256	
5763	0	34208	
5764	0	33700	
5765	0	33536	
5766	0	33488	
5767	0	33868	
5768	0	34588	
5769	0	34956	
5770	0	34132	
5771	0	32684	
5772	0	31444	
5773	0	30476	
5774	0	29772	
5775	0	29712	
5776	0	29880	
5777	0	29728	
5778	0	29772	
5779	0	29992	
5780	0	30484	
5781	0	31288	
5782	0	31772	
5783	0	32328	
5784	0	32888	
5785	0	32892	
5786	0	32048	
5787	0	30672	
5788	0	29346	
5789	0	28464	
5790	0	28360	
5791	0	28836	
5792	0	30264	
5793	0	31684	
5794	0	32632	
5795	0	33600	
5796	0	33968	
5797	0	33544	
5798	0	32372	
5799	0	30648	
5800	0	29048	
5801	0	28184	
5802	0	28392	
5803	0	29840	
5804	0	32060	
5805	0	34536	
5806	0	36240	
5807	0	37496	
5808	0	38656	
5809	0	39396	
5810	0	39274	
5811	0	38796	
5812	0	37680	
5813	0	36724	
5814	0	35952	
5815	0	35728	
5816	0	35308	
5817	0	34980	
5818	0	34600	
5819	0	34324	
5820	0	33580	
5821	0	32120	
5822	0	30576	
5823	0	29844	
5824	0	29600	
5825	0	29514	
5826	0	29752	
5827	0	29572	
5828	0	29138	
5829	0	29000	
5830	0	28972	
5831	0	29412	
5832	0	30325	
5833	0	31500	
5834	0	32516	
5835	0	33054	
5836	0	32732	
5837	0	31836	
5838	0	31156	
5839	0	30944	
5840	0	31528	
5841	0	32322	
5842	0	32976	
5843	0	33088	
5844	0	32600	
5845	0	32008	
5846	0	31120	
5847	0	30256	
5848	0	30436	
5849	0	31060	
5850	0	31704	
5851	0	32624	
5852	0	34456	
5853	0	36410	
5854	0	37392	
5855	0	38044	
5856	0	38592	
5857	0	38828	
5858	0	38500	
5859	0	37592	
5860	0	35984	
5861	0	33948	
5862	0	32196	
5863	0	31004	
5864	0	30192	
5865	0	29944	
5866	0	30212	
5867	0	30608	
5868	0	31312	
5869	0	31886	
5870	0	32108	
5871	0	31832	
5872	0	31304	
5873	0	30612	
5874	0	30024	
5875	0	30064	
5876	0	30556	
5877	0	31468	
5878	0	32944	
5879	0	33792	
5880	0	33466	
5881	0	33066	
5882	0	32256	
5883	0	31240	
5884	0	30608	
5885	0	30792	
5886	0	31744	
5887	0	32440	
5888	0	33172	
5889	0	34196	
5890	0	34912	
5891	0	35088	
5892	0	34748	
5893	0	34344	
5894	0	33864	
5895	0	32936	
5896	0	32008	
5897	0	30944	
5898	0	30244	
5899	0	30136	
5900	0	30680	
5901	0	31528	
5902	0	31522	
5903	0	31152	
5904	0	30872	
5905	0	31080	
5906	0	31880	
5907	0	32584	
5908	0	33300	
5909	0	33650	
5910	0	33990	
5911	0	34476	
5912	0	34628	
5913	0	34436	
5914	0	34372	
5915	0	34020	
5916	0	33180	
5917	0	32664	
5918	0	32524	
5919	0	32340	
5920	0	31888	
5921	0	32220	
5922	0	32820	
5923	0	32872	
5924	0	33040	
5925	0	33208	
5926	0	32684	
5927	0	32128	
5928	0	32144	
5929	0	32448	
5930	0	32844	
5931	0	32960	
5932	0	32952	
5933	0	33048	
5934	0	33248	
5935	0	33456	
5936	0	33788	
5937	0	33776	
5938	0	33240	
5939	0	32480	
5940	0	31364	
5941	0	30412	
5942	0	29952	
5943	0	29988	
5944	0	30312	
5945	0	31418	
5946	0	33456	
5947	0	35348	
5948	0	36536	
5949	0	36808	
5950	0	36608	
5951	0	36370	
5952	0	35552	
5953	0	34092	
5954	0	32936	
5955	0	32624	
5956	0	32640	
5957	0	33188	
5958	0	34160	
5959	0	35328	
5960	0	36000	
5961	0	35856	
5962	0	34680	
5963	0	33120	
5964	0	32008	
5965	0	30920	
5966	0	29700	
5967	0	28780	
5968	0	28904	
5969	0	29848	
5970	0	30840	
5971	0	32124	
5972	0	33296	
5973	0	33640	
5974	0	33244	
5975	0	32952	
5976	0	32689	
5977	0	32360	
5978	0	31720	
5979	0	30780	
5980	0	29872	
5981	0	28912	
5982	0	28488	
5983	0	28568	
5984	0	28912	
5985	0	29856	
5986	0	31436	
5987	0	33112	
5988	0	34852	
5989	0	36064	
5990	0	36588	
5991	0	36700	
5992	0	36620	
5993	0	36112	
5994	0	35546	
5995	0	35088	
5996	0	34728	
5997	0	33916	
5998	0	32912	
5999	0	32236	
6000	0	32152	
6001	0	32546	
6002	0	32922	
6003	0	33424	
6004	0	34188	
6005	0	34496	
6006	0	34344	
6007	0	33896	
6008	0	33564	
6009	0	33364	
6010	0	32872	
6011	0	31936	
6012	0	30972	
6013	0	30532	
6014	0	30280	
6015	0	30000	
6016	0	29796	
6017	0	30024	
6018	0	30408	
6019	0	30620	
6020	0	30848	
6021	0	31240	
6022	0	32112	
6023	0	33048	
6024	0	34496	
6025	0	35514	
6026	0	36084	
6027	0	36626	
6028	0	36944	
6029	0	36544	
6030	0	35544	
6031	0	34668	
6032	0	34032	
6033	0	33540	
6034	0	32920	
6035	0	32268	
6036	0	31420	
6037	0	30328	
6038	0	29578	
6039	0	29560	
6040	0	30094	
6041	0	31072	
6042	0	32216	
6043	0	33492	
6044	0	34040	
6045	0	34608	
6046	0	35520	
6047	0	36684	
6048	0	37508	
6049	0	37276	
6050	0	36300	
6051	0	35304	
6052	0	34392	
6053	0	33776	
6054	0	33476	
6055	0	33224	
6056	0	33092	
6057	0	32408	
6058	0	31660	
6059	0	31296	
6060	0	30824	
6061	0	29984	
6062	0	29244	
6063	0	28792	
6064	0	28884	
6065	0	29632	
6066	0	31056	
6067	0	32848	
6068	0	34888	
6069	0	36524	
6070	0	38048	
6071	0	38920	
6072	0	38468	
6073	0	37168	
6074	0	35424	
6075	0	33796	
6076	0	32864	
6077	0	32188	
6078	0	31252	
6079	0	30832	
6080	0	31128	
6081	0	32172	
6082	0	33712	
6083	0	35356	
6084	0	36184	
6085	0	35656	
6086	0	34460	
6087	0	33296	
6088	0	32588	
6089	0	32816	
6090	0	33136	
6091	0	33738	
6092	0	34412	
6093	0	34880	
6094	0	35074	
6095	0	34888	
6096	0	34352	
6097	0	33244	
6098	0	31712	
6099	0	30440	
6100	0	29964	
6101	0	30396	
6102	0	31656	
6103	0	33320	
6104	0	34932	
6105	0	36092	
6106	0	36453	
6107	0	36116	
6108	0	35136	
6109	0	34220	
6110	0	33004	
6111	0	31400	
6112	0	30068	
6113	0	29056	
6114	0	28736	
6115	0	29292	
6116	0	30540	
6117	0	31932	
6118	0	33372	
6119	0	34968	
6120	0	36360	
6121	0	37320	
6122	0	37592	
6123	0	36748	
6124	0	35264	
6125	0	33940	
6126	0	32876	
6127	0	32544	
6128	0	32256	
6129	0	31952	
6130	0	31868	
6131	0	32160	
6132	0	32570	
6133	0	32292	
6134	0	31800	
6135	0	30672	
6136	0	29261	
6137	0	28740	
6138	0	29272	
6139	0	30372	
6140	0	31892	
6141	0	33068	
6142	0	33664	
6143	0	33464	
6144	0	33024	
6145	0	32408	
6146	0	31852	
6147	0	31456	
6148	0	31040	
6149	0	30248	
6150	0	29232	
6151	0	28640	
6152	0	28340	
6153	0	28784	
6154	0	29888	
6155	0	31892	
6156	0	33812	
6157	0	34992	
6158	0	34336	
6159	0	32316	
6160	0	30296	
6161	0	28752	
6162	0	28448	
6163	0	28936	
6164	0	29628	
6165	0	31436	
6166	0	34392	
6167	0	37008	
6168	0	39004	
6169	0	40064	
6170	0	39236	
6171	0	37880	
6172	0	36644	
6173	0	35596	
6174	0	34924	
6175	0	34828	
6176	0	34852	
6177	0	34880	
6178	0	35096	
6179	0	35252	
6180	0	34828	
6181	0	33744	
6182	0	32656	
6183	0	31976	
6184	0	31232	
6185	0	30898	
6186	0	31208	
6187	0	31988	
6188	0	33068	
6189	0	34184	
6190	0	34972	
6191	0	35072	
6192	0	34756	
6193	0	33716	
6194	0	32376	
6195	0	31528	
6196	0	30772	
6197	0	30564	
6198	0	30972	
6199	0	31680	
6200	0	32452	
6201	0	32624	
6202	0	33160	
6203	0	34592	
6204	0	35776	
6205	0	36320	
6206	0	36496	
6207	0	36800	
6208	0	37616	
6209	0	38324	
6210	0	38576	
6211	0	38768	
6212	0	38656	
6213	0	38700	
6214	0	38064	
6215	0	36890	
6216	0	35212	
6217	0	33304	
6218	0	31616	
6219	0	30072	
6220	0	29288	
6221	0	29588	
6222	0	30720	
6223	0	32000	
6224	0	33340	
6225	0	34272	
6226	0	33668	
6227	0	31988	
6228	0	30668	
6229	0	29924	
6230	0	30032	
6231	0	30730	
6232	0	32184	
6233	0	34068	
6234	0	35296	
6235	0	36512	
6236	0	37176	
6237	0	37472	
6238	0	37420	
6239	0	37076	
6240	0	36336	
6241	0	35296	
6242	0	34944	
6243	0	34898	
6244	0	33320	
6245	0	31536	
6246	0	29380	
6247	0	27656	
6248	0	26688	
6249	0	26708	
6250	0	28148	
6251	0	30792	
6252	0	33320	
6253	0	36136	
6254	0	38068	
6255	0	38464	
6256	0	37584	
6257	0	36556	
6258	0	35636	
6259	0	34704	
6260	0	33012	
6261	0	31180	
6262	0	29764	
6263	0	28640	
6264	0	28356	
6265	0	28652	
6266	0	29340	
6267	0	30668	
6268	0	31952	
6269	0	32548	
6270	0	32996	
6271	0	33880	
6272	0	34260	
6273	0	34428	
6274	0	34324	
6275	0	34448	
6276	0	34816	
6277	0	35076	
6278	0	35108	
6279	0	35328	
6280	0	35296	
6281	0	34928	
6282	0	34652	
6283	0	34492	
6284	0	34308	
6285	0	34016	
6286	0	33484	
6287	0	32680	
6288	0	31744	
6289	0	30816	
6290	0	29968	
6291	0	29632	
6292	0	30320	
6293	0	31960	
6294	0	33112	
6295	0	33216	
6296	0	32528	
6297	0	31324	
6298	0	30096	
6299	0	29456	
6300	0	29264	
6301	0	29104	
6302	0	28904	
6303	0	29416	
6304	0	29930	
6305	0	30108	
6306	0	30196	
6307	0	30920	
6308	0	31920	
6309	0	32948	
6310	0	33976	
6311	0	34212	
6312	0	33680	
6313	0	33208	
6314	0	33472	
6315	0	34484	
6316	0	35232	
6317	0	35612	
6318	0	35650	
6319	0	35352	
6320	0	34840	
6321	0	34584	
6322	0	34864	
6323	0	35380	
6324	0	35504	
6325	0	35204	
6326	0	33976	
6327	0	32400	
6328	0	30720	
6329	0	29064	
6330	0	28348	
6331	0	28552	
6332	0	28928	
6333	0	29728	
6334	0	30872	
6335	0	32028	
6336	0	32624	
6337	0	32960	
6338	0	33532	
6339	0	34216	
6340	0	35072	
6341	0	35332	
6342	0	35188	
6343	0	34978	
6344	0	34728	
6345	0	34356	
6346	0	33672	
6347	0	33268	
6348	0	32604	
6349	0	31560	
6350	0	30810	
6351	0	30880	
6352	0	31444	
6353	0	32220	
6354	0	32876	
6355	0	33680	
6356	0	34456	
6357	0	34648	
6358	0	34356	
6359	0	33844	
6360	0	33556	
6361	0	33344	
6362	0	32908	
6363	0	32428	
6364	0	32032	
6365	0	31700	
6366	0	31328	
6367	0	30996	
6368	0	31316	
6369	0	31832	
6370	0	31880	
6371	0	32168	
6372	0	32566	
6373	0	32740	
6374	0	33480	
6375	0	34048	
6376	0	33552	
6377	0	32808	
6378	0	32268	
6379	0	32012	
6380	0	31940	
6381	0	32820	
6382	0	34008	
6383	0	34328	
6384	0	33944	
6385	0	33136	
6386	0	32106	
6387	0	31456	
6388	0	31944	
6389	0	33096	
6390	0	33420	
6391	0	33248	
6392	0	32404	
6393	0	31596	
6394	0	31432	
6395	0	31940	
6396	0	32784	
6397	0	33548	
6398	0	34612	
6399	0	35668	
6400	0	35976	
6401	0	36172	
6402	0	35672	
6403	0	34098	
6404	0	32176	
6405	0	30152	
6406	0	28764	
6407	0	28450	
6408	0	30244	
6409	0	32552	
6410	0	33572	
6411	0	33980	
6412	0	34140	
6413	0	34000	
6414	0	33092	
6415	0	32668	
6416	0	32354	
6417	0	32236	
6418	0	32992	
6419	0	34224	
6420	0	35528	
6421	0	36840	
6422	0	37232	
6423	0	37568	
6424	0	37360	
6425	0	37012	
6426	0	36592	
6427	0	36004	
6428	0	35432	
6429	0	35224	
6430	0	35464	
6431	0	35824	
6432	0	35880	
6433	0	35364	
6434	0	33932	
6435	0	32480	
6436	0	31560	
6437	0	31640	
6438	0	31992	
6439	0	32620	
6440	0	33868	
6441	0	34552	
6442	0	34448	
6443	0	34016	
6444	0	33364	
6445	0	32720	
6446	0	31560	
6447	0	29980	
6448	0	28642	
6449	0	27988	
6450	0	28308	
6451	0	29744	
6452	0	32388	
6453	0	35048	
6454	0	36852	
6455	0	37660	
6456	0	37268	
6457	0	36416	
6458	0	35620	
6459	0	34972	
6460	0	34132	
6461	0	34140	
6462	0	34776	
6463	0	34632	
6464	0	33732	
6465	0	32380	
6466	0	31248	
6467	0	30432	
6468	0	30368	
6469	0	31352	
6470	0	32968	
6471	0	33648	
6472	0	32664	
6473	0	31964	
6474	0	32456	
6475	0	34036	
6476	0	34892	
6477	0	35881	
6478	0	36968	
6479	0	37656	
6480	0	38368	
6481	0	39048	
6482	0	39472	
6483	0	38896	
6484	0	37456	
6485	0	35748	
6486	0	33744	
6487	0	31760	
6488	0	31188	
6489	0	32208	
6490	0	33264	
6491	0	33968	
6492	0	35360	
6493	0	37148	
6494	0	37856	
6495	0	37500	
6496	0	36592	
6497	0	35184	
6498	0	33748	
6499	0	33696	
6500	0	35288	
6501	0	37152	
6502	0	38272	
6503	0	38496	
6504	0	37804	
6505	0	36688	
6506	0	34898	
6507	0	32508	
6508	0	30048	
6509	0	27648	
6510	0	26304	
6511	0	26764	
6512	0	29036	
6513	0	31536	
6514	0	33900	
6515	0	35116	
6516	0	35420	
6517	0	35268	
6518	0	35328	
6519	0	35740	
6520	0	36032	
6521	0	34930	
6522	0	33312	
6523	0	31712	
6524	0	30088	
6525	0	28852	
6526	0	28736	
6527	0	29564	
6528	0	30860	
6529	0	32020	
6530	0	32740	
6531	0	33680	
6532	0	33664	
6533	0	32938	
6534	0	32184	
6535	0	31828	
6536	0	30660	
6537	0	29816	
6538	0	29800	
6539	0	30050	
6540	0	29944	
6541	0	30032	
6542	0	29880	
6543	0	28968	
6544	0	27248	
6545	0	25445	
6546	0	25448	
6547	0	26896	
6548	0	29300	
6549	0	33064	
6550	0	36396	
6551	0	38380	
6552	0	39252	
6553	0	38840	
6554	0	37728	
6555	0	37264	
6556	0	36856	
6557	0	36248	
6558	0	35948	
6559	0	35344	
6560	0	33948	
6561	0	31792	
6562	0	29544	
6563	0	28320	
6564	0	28092	
6565	0	29300	
6566	0	30824	
6567	0	33026	
6568	0	35772	
6569	0	37696	
6570	0	38680	
6571	0	38148	
6572	0	36344	
6573	0	34444	
6574	0	32800	
6575	0	31440	
6576	0	30640	
6577	0	30768	
6578	0	31272	
6579	0	31272	
6580	0	31284	
6581	0	31248	
6582	0	31372	
6583	0	32264	
6584	0	33600	
6585	0	34612	
6586	0	35860	
6587	0	37128	
6588	0	37888	
6589	0	37720	
6590	0	36186	
6591	0	34300	
6592	0	33126	
6593	0	32240	
6594	0	32032	
6595	0	33032	
6596	0	34068	
6597	0	33856	
6598	0	32980	
6599	0	31578	
6600	0	30040	
6601	0	28540	
6602	0	26660	
6603	0	24276	
6604	0	21708	
6605	0	19288	
6606	0	17322	
6607	0	17004	
6608	0	17746	
6609	0	18796	
6610	0	21380	
6611	0	25488	
6612	0	30488	
6613	0	34744	
6614	0	38304	
6615	0	40720	
6616	0	41608	
6617	0	42036	
6618	0	41944	
6619	0	41164	
6620	0	40160	
6621	0	39324	
6622	0	38728	
6623	0	37640	
6624	0	36860	
6625	0	36624	
6626	0	36392	
6627	0	36080	
6628	0	35732	
6629	0	35368	
6630	0	34512	
6631	0	32948	
6632	0	30992	
6633	0	29440	
6634	0	28672	
6635	0	28604	
6636	0	29428	
6637	0	31260	
6638	0	33024	
6639	0	33552	
6640	0	33212	
6641	0	31944	
6642	0	29612	
6643	0	26976	
6644	0	25448	
6645	0	25400	
6646	0	26900	
6647	0	30188	
6648	0	34712	
6649	0	37788	
6650	0	38072	
6651	0	36604	
6652	0	34316	
6653	0	32888	
6654	0	33264	
6655	0	35276	
6656	0	38042	
6657	0	40824	
6658	0	42660	
6659	0	42724	
6660	0	41272	
6661	0	38768	
6662	0	36320	
6663	0	34368	
6664	0	32096	
6665	0	30052	
6666	0	28896	
6667	0	28692	
6668	0	29828	
6669	0	30794	
6670	0	30930	
6671	0	30848	
6672	0	30636	
6673	0	30504	
6674	0	30444	
6675	0	30880	
6676	0	31912	
6677	0	33652	
6678	0	35656	
6679	0	37768	
6680	0	39428	
6681	0	40236	
6682	0	39840	
6683	0	38648	
6684	0	37716	
6685	0	37108	
6686	0	36516	
6687	0	36040	
6688	0	35262	
6689	0	34010	
6690	0	32320	
6691	0	30060	
6692	0	27816	
6693	0	25924	
6694	0	23908	
6695	0	22180	
6696	0	20864	
6697	0	19600	
6698	0	18122	
6699	0	16884	
6700	0	16356	
6701	0	17605	
6702	0	19828	
6703	0	22756	
6704	0	26312	
6705	0	30312	
6706	0	33964	
6707	0	36380	
6708	0	38272	
6709	0	39936	
6710	0	41192	
6711	0	42156	
6712	0	41952	
6713	0	40800	
6714	0	38780	
6715	0	36492	
6716	0	34160	
6717	0	31832	
6718	0	29940	
6719	0	29468	
6720	0	30024	
6721	0	30744	
6722	0	30140	
6723	0	27404	
6724	0	24160	
6725	0	21744	
6726	0	20980	
6727	0	22490	
6728	0	25702	
6729	0	29648	
6730	0	33484	
6731	0	35640	
6732	0	36836	
6733	0	37568	
6734	0	38112	
6735	0	38944	
6736	0	40040	
6737	0	41372	
6738	0	41594	
6739	0	40912	
6740	0	40220	
6741	0	39744	
6742	0	39732	
6743	0	39864	
6744	0	39864	
6745	0	39482	
6746	0	38124	
6747	0	35940	
6748	0	33178	
6749	0	30288	
6750	0	27674	
6751	0	25800	
6752	0	25156	
6753	0	25604	
6754	0	26784	
6755	0	28648	
6756	0	31152	
6757	0	32984	
6758	0	33068	
6759	0	32162	
6760	0	31528	
6761	0	31612	
6762	0	31992	
6763	0	32956	
6764	0	34400	
6765	0	35304	
6766	0	35480	
6767	0	35060	
6768	0	34112	
6769	0	32704	
6770	0	31004	
6771	0	29108	
6772	0	27280	
6773	0	25954	
6774	0	25728	
6775	0	26804	
6776	0	28564	
6777	0	30296	
6778	0	31092	
6779	0	31592	
6780	0	31536	
6781	0	31512	
6782	0	31314	
6783	0	31296	
6784	0	31336	
6785	0	31000	
6786	0	30512	
6787	0	29852	
6788	0	28936	
6789	0	27616	
6790	0	26732	
6791	0	26856	
6792	0	27788	
6793	0	29248	
6794	0	30608	
6795	0	30712	
6796	0	29672	
6797	0	27456	
6798	0	25040	
6799	0	23856	
6800	0	24676	
6801	0	28448	
6802	0	33426	
6803	0	38338	
6804	0	41296	
6805	0	42612	
6806	0	42932	
6807	0	42592	
6808	0	41160	
6809	0	38560	
6810	0	35936	
6811	0	33672	
6812	0	31928	
6813	0	30780	
6814	0	29864	
6815	0	29288	
6816	0	28942	
6817	0	28788	
6818	0	28788	
6819	0	28904	
6820	0	28968	
6821	0	29090	
6822	0	29160	
6823	0	29032	
6824	0	28616	
6825	0	28172	
6826	0	27784	
6827	0	27268	
6828	0	26720	
6829	0	25736	
6830	0	25036	
6831	0	25208	
6832	0	26170	
6833	0	28088	
6834	0	30568	
6835	0	33220	
6836	0	35684	
6837	0	37740	
6838	0	39040	
6839	0	39596	
6840	0	39876	
6841	0	39768	
6842	0	39264	
6843	0	38796	
6844	0	38056	
6845	0	36764	
6846	0	35204	
6847	0	33500	
6848	0	31860	
6849	0	30344	
6850	0	28720	
6851	0	27328	
6852	0	26232	
6853	0	25236	
6854	0	24072	
6855	0	22188	
6856	0	20442	
6857	0	19500	
6858	0	19053	
6859	0	19272	
6860	0	21018	
6861	0	24292	
6862	0	28368	
6863	0	32724	
6864	0	36936	
6865	0	39848	
6866	0	41356	
6867	0	42328	
6868	0	42320	
6869	0	41168	
6870	0	39384	
6871	0	37656	
6872	0	35840	
6873	0	34024	
6874	0	32576	
6875	0	31792	
6876	0	31600	
6877	0	31780	
6878	0	32192	
6879	0	32328	
6880	0	31284	
6881	0	29324	
6882	0	27320	
6883	0	25768	
6884	0	24896	
6885	0	25208	
6886	0	26836	
6887	0	29898	
6888	0	33544	
6889	0	36768	
6890	0	38704	
6891	0	39044	
6892	0	38440	
6893	0	37640	
6894	0	36656	
6895	0	35624	
6896	0	34596	
6897	0	34164	
6898	0	34032	
6899	0	33356	
6900	0	32048	
6901	0	30592	
6902	0	29288	
6903	0	28284	
6904	0	27804	
6905	0	27872	
6906	0	28056	
6907	0	28028	
6908	0	27724	
6909	0	27104	
6910	0	26026	
6911	0	24516	
6912	0	23004	
6913	0	21968	
6914	0	22497	
6915	0	25128	
6916	0	29130	
6917	0	33784	
6918	0	37976	
6919	0	40988	
6920	0	42940	
6921	0	44384	
6922	0	45352	
6923	0	45872	
6924	0	45452	
6925	0	44048	
6926	0	41848	
6927	0	39232	
6928	0	36400	
6929	0	33808	
6930	0	31696	
6931	0	29584	
6932	0	28192	
6933	0	27616	
6934	0	27284	
6935	0	26696	
6936	0	26272	
6937	0	26464	
6938	0	27160	
6939	0	28256	
6940	0	29301	
6941	0	30352	
6942	0	31702	
6943	0	33096	
6944	0	34640	
6945	0	36308	
6946	0	39120	
6947	0	41928	
6948	0	43524	
6949	0	43704	
6950	0	43008	
6951	0	41776	
6952	0	40048	
6953	0	37952	
6954	0	35316	
6955	0	32728	
6956	0	30608	
6957	0	29122	
6958	0	28184	
6959	0	27440	
6960	0	27324	
6961	0	27676	
6962	0	28512	
6963	0	29368	
6964	0	29954	
6965	0	30268	
6966	0	30336	
6967	0	30236	
6968	0	30016	
6969	0	29664	
6970	0	29868	
6971	0	30912	
6972	0	32080	
6973	0	33424	
6974	0	35020	
6975	0	36572	
6976	0	38016	
6977	0	39560	
6978	0	41312	
6979	0	43152	
6980	0	44272	
6981	0	44700	
6982	0	44344	
6983	0	43588	
6984	0	41960	
6985	0	39504	
6986	0	36336	
6987	0	33908	
6988	0	32056	
6989	0	30436	
6990	0	28940	
6991	0	28412	
6992	0	28784	
6993	0	29076	
6994	0	28604	
6995	0	28200	
6996	0	27540	
6997	0	27308	
6998	0	27608	
6999	0	27656	
7000	0	27560	
7001	0	28216	
7002	0	29440	
7003	0	30860	
7004	0	32148	
7005	0	32364	
7006	0	31040	
7007	0	28860	
7008	0	27082	
7009	0	26289	
7010	0	26416	
7011	0	27316	
7012	0	29676	
7013	0	32008	
7014	0	33376	
7015	0	34568	
7016	0	35634	
7017	0	35520	
7018	0	34420	
7019	0	33344	
7020	0	32596	
7021	0	32028	
7022	0	31505	
7023	0	30996	
7024	0	30616	
7025	0	30480	
7026	0	30432	
7027	0	30612	
7028	0	30884	
7029	0	30952	
7030	0	31242	
7031	0	32284	
7032	0	33264	
7033	0	33584	
7034	0	33232	
7035	0	32576	
7036	0	31628	
7037	0	30492	
7038	0	29652	
7039	0	28964	
7040	0	28210	
7041	0	27916	
7042	0	28372	
7043	0	29248	
7044	0	30324	
7045	0	31108	
7046	0	31132	
7047	0	30340	
7048	0	28928	
7049	0	27012	
7050	0	24904	
7051	0	23020	
7052	0	22072	
7053	0	22058	
7054	0	22580	
7055	0	23992	
7056	0	26452	
7057	0	29360	
7058	0	31740	
7059	0	33824	
7060	0	35400	
7061	0	35736	
7062	0	34848	
7063	0	33492	
7064	0	31736	
7065	0	30116	
7066	0	29136	
7067	0	29264	
7068	0	30040	
7069	0	30820	
7070	0	31924	
7071	0	32744	
7072	0	32976	
7073	0	32468	
7074	0	31432	
7075	0	30276	
7076	0	29848	
7077	0	29992	
7078	0	30048	
7079	0	30096	
7080	0	30708	
7081	0	32124	
7082	0	33452	
7083	0	34300	
7084	0	35612	
7085	0	37160	
7086	0	37808	
7087	0	37624	
7088	0	36376	
7089	0	34690	
7090	0	32964	
7091	0	31536	
7092	0	31352	
7093	0	32264	
7094	0	33140	
7095	0	33580	
7096	0	33512	
7097	0	32612	
7098	0	31384	
7099	0	30256	
7100	0	29420	
7101	0	28676	
7102	0	27992	
7103	0	28040	
7104	0	29417	
7105	0	31456	
7106	0	33184	
7107	0	35012	
7108	0	36344	
7109	0	37140	
7110	0	37800	
7111	0	38304	
7112	0	38384	
7113	0	38454	
7114	0	38812	
7115	0	39292	
7116	0	39392	
7117	0	39280	
7118	0	39404	
7119	0	39516	
7120	0	39242	
7121	0	38504	
7122	0	37552	
7123	0	36664	
7124	0	35816	
7125	0	34468	
7126	0	32640	
7127	0	31282	
7128	0	30848	
7129	0	31128	
7130	0	31736	
7131	0	32896	
7132	0	34528	
7133	0	36592	
7134	0	38476	
7135	0	39976	
7136	0	40576	
7137	0	41104	
7138	0	41516	
7139	0	41752	
7140	0	41912	
7141	0	41840	
7142	0	40656	
7143	0	38368	
7144	0	36352	
7145	0	34404	
7146	0	32228	
7147	0	30330	
7148	0	29392	
7149	0	29336	
7150	0	29320	
7151	0	29308	
7152	0	29960	
7153	0	31104	
7154	0	32196	
7155	0	33632	
7156	0	35816	
7157	0	38824	
7158	0	40692	
7159	0	41132	
7160	0	40528	
7161	0	39044	
7162	0	37136	
7163	0	35400	
7164	0	34116	
7165	0	33172	
7166	0	32736	
7167	0	32952	
7168	0	33256	
7169	0	33428	
7170	0	33464	
7171	0	33520	
7172	0	33748	
7173	0	33936	
7174	0	33968	
7175	0	34268	
7176	0	34552	
7177	0	34424	
7178	0	34388	
7179	0	34724	
7180	0	35064	
7181	0	35208	
7182	0	35624	
7183	0	36096	
7184	0	36108	
7185	0	35684	
7186	0	34420	
7187	0	32980	
7188	0	31668	
7189	0	30724	
7190	0	30480	
7191	0	31008	
7192	0	32120	
7193	0	33496	
7194	0	33736	
7195	0	33292	
7196	0	32794	
7197	0	32364	
7198	0	32024	
7199	0	31868	
7200	0	31638	
7201	0	31490	
7202	0	32180	
7203	0	33104	
7204	0	34008	
7205	0	35488	
7206	0	37148	
7207	0	37992	
7208	0	37824	
7209	0	37136	
7210	0	36128	
7211	0	35064	
7212	0	34304	
7213	0	34088	
7214	0	34360	
7215	0	34924	
7216	0	35664	
7217	0	36560	
7218	0	37100	
7219	0	36885	
7220	0	36312	
7221	0	35360	
7222	0	34232	
7223	0	33536	
7224	0	33298	
7225	0	32680	
7226	0	31728	
7227	0	31696	
7228	0	32336	
7229	0	33004	
7230	0	33468	
7231	0	34312	
7232	0	35448	
7233	0	35988	
7234	0	35992	
7235	0	35552	
7236	0	34912	
7237	0	34756	
7238	0	34580	
7239	0	34320	
7240	0	34182	
7241	0	33984	
7242	0	33624	
7243	0	33396	
7244	0	33144	
7245	0	33104	
7246	0	33504	
7247	0	34136	
7248	0	33836	
7249	0	33016	
7250	0	32780	
7251	0	33368	
7252	0	33664	
7253	0	33752	
7254	0	34548	
7255	0	35636	
7256	0	36980	
7257	0	38644	
7258	0	39948	
7259	0	40212	
7260	0	39632	
7261	0	38594	
7262	0	37152	
7263	0	35456	
7264	0	33952	
7265	0	33096	
7266	0	33292	
7267	0	34216	
7268	0	34842	
7269	0	35688	
7270	0	36580	
7271	0	36824	
7272	0	36452	
7273	0	36168	
7274	0	35572	
7275	0	35124	
7276	0	34718	
7277	0	33976	
7278	0	32608	
7279	0	31008	
7280	0	29208	
7281	0	27760	
7282	0	26746	
7283	0	26528	
7284	0	27136	
7285	0	27388	
7286	0	26920	
7287	0	27368	
7288	0	28652	
7289	0	30492	
7290	0	32316	
7291	0	34640	
7292	0	37128	
7293	0	39096	
7294	0	39920	
7295	0	39600	
7296	0	38840	
7297	0	37760	
7298	0	36424	
7299	0	35136	
7300	0	34028	
7301	0	32584	
7302	0	31432	
7303	0	30712	
7304	0	30848	
7305	0	31576	
7306	0	32284	
7307	0	33056	
7308	0	34080	
7309	0	34720	
7310	0	35120	
7311	0	35724	
7312	0	36622	
7313	0	37580	
7314	0	38100	
7315	0	37832	
7316	0	37176	
7317	0	36188	
7318	0	35778	
7319	0	36362	
7320	0	37648	
7321	0	38692	
7322	0	39032	
7323	0	38708	
7324	0	38108	
7325	0	37328	
7326	0	35968	
7327	0	34680	
7328	0	33432	
7329	0	32400	
7330	0	32024	
7331	0	32002	
7332	0	32234	
7333	0	32736	
7334	0	33248	
7335	0	33592	
7336	0	33744	
7337	0	33928	
7338	0	34336	
7339	0	34904	
7340	0	35420	
7341	0	35320	
7342	0	35068	
7343	0	34888	
7344	0	34152	
7345	0	33344	
7346	0	32520	
7347	0	31456	
7348	0	30696	
7349	0	30424	
7350	0	30780	
7351	0	32284	
7352	0	34248	
7353	0	36080	
7354	0	38012	
7355	0	39656	
7356	0	40788	
7357	0	40948	
7358	0	40232	
7359	0	38880	
7360	0	37272	
7361	0	35440	
7362	0	33248	
7363	0	30648	
7364	0	28448	
7365	0	27364	
7366	0	27256	
7367	0	27328	
7368	0	28312	
7369	0	29892	
7370	0	31824	
7371	0	33616	
7372	0	34940	
7373	0	36032	
7374	0	37172	
7375	0	38064	
7376	0	38696	
7377	0	38856	
7378	0	38540	
7379	0	38012	
7380	0	37772	
7381	0	37696	
7382	0	37610	
7383	0	37556	
7384	0	37440	
7385	0	37072	
7386	0	36460	
7387	0	36056	
7388	0	35748	
7389	0	35244	
7390	0	34884	
7391	0	34920	
7392	0	35036	
7393	0	34760	
7394	0	33800	
7395	0	32720	
7396	0	32664	
7397	0	33232	
7398	0	33316	
7399	0	32912	
7400	0	32688	
7401	0	33112	
7402	0	34060	
7403	0	34584	
7404	0	34308	
7405	0	33956	
7406	0	33888	
7407	0	33696	
7408	0	33460	
7409	0	33282	
7410	0	32636	
7411	0	31480	
7412	0	30604	
7413	0	29876	
7414	0	28988	
7415	0	28432	
7416	0	28800	
7417	0	29484	
7418	0	29096	
7419	0	28584	
7420	0	28680	
7421	0	29292	
7422	0	30092	
7423	0	31128	
7424	0	32272	
7425	0	33136	
7426	0	33464	
7427	0	33796	
7428	0	33736	
7429	0	33204	
7430	0	32856	
7431	0	32784	
7432	0	32588	
7433	0	31596	
7434	0	30104	
7435	0	29444	
7436	0	29356	
7437	0	29336	
7438	0	29304	
7439	0	29484	
7440	0	29812	
7441	0	29694	
7442	0	29512	
7443	0	29700	
7444	0	30696	
7445	0	32416	
7446	0	34208	
7447	0	35408	
7448	0	36084	
7449	0	36476	
7450	0	36696	
7451	0	36912	
7452	0	36736	
7453	0	36256	
7454	0	35500	
7455	0	34458	
7456	0	33176	
7457	0	32180	
7458	0	30984	
7459	0	29348	
7460	0	27466	
7461	0	25836	
7462	0	24960	
7463	0	25192	
7464	0	26272	
7465	0	27668	
7466	0	29300	
7467	0	30864	
7468	0	31244	
7469	0	31400	
7470	0	32288	
7471	0	32788	
7472	0	32868	
7473	0	32944	
7474	0	33018	
7475	0	32824	
7476	0	32272	
7477	0	31660	
7478	0	31482	
7479	0	31608	
7480	0	31668	
7481	0	31528	
7482	0	31472	
7483	0	31412	
7484	0	31120	
7485	0	30888	
7486	0	30762	
7487	0	30732	
7488	0	30772	
7489	0	30764	
7490	0	30890	
7491	0	31156	
7492	0	31300	
7493	0	31580	
7494	0	32352	
7495	0	33468	
7496	0	34392	
7497	0	34762	
7498	0	34708	
7499	0	34772	
7500	0	35092	
7501	0	35548	
7502	0	36028	
7503	0	35872	
7504	0	34672	
7505	0	32980	
7506	0	31272	
7507	0	30072	
7508	0	29380	
7509	0	28992	
7510	0	28324	
7511	0	27456	
7512	0	26312	
7513	0	25472	
7514	0	25516	
7515	0	26252	
7516	0	27180	
7517	0	27904	
7518	0	28032	
7519	0	28180	
7520	0	29092	
7521	0	30324	
7522	0	31480	
7523	0	32568	
7524	0	33452	
7525	0	33608	
7526	0	33360	
7527	0	33104	
7528	0	32904	
7529	0	32464	
7530	0	31584	
7531	0	30468	
7532	0	29468	
7533	0	29092	
7534	0	29336	
7535	0	30068	
7536	0	31568	
7537	0	33576	
7538	0	35388	
7539	0	36384	
7540	0	36248	
7541	0	35072	
7542	0	33676	
7543	0	32560	
7544	0	31260	
7545	0	30218	
7546	0	29873	
7547	0	30744	
7548	0	31812	
7549	0	32376	
7550	0	32928	
7551	0	33352	
7552	0	33548	
7553	0	33760	
7554	0	34076	
7555	0	34304	
7556	0	34256	
7557	0	33644	
7558	0	32976	
7559	0	32600	
7560	0	32688	
7561	0	32798	
7562	0	32698	
7563	0	32900	
7564	0	33256	
7565	0	33360	
7566	0	33252	
7567	0	32920	
7568	0	32680	
7569	0	32784	
7570	0	32752	
7571	0	32544	
7572	0	31996	
7573	0	31058	
7574	0	29348	
7575	0	27264	
7576	0	25624	
7577	0	24744	
7578	0	24696	
7579	0	25824	
7580	0	27768	
7581	0	30444	
7582	0	33824	
7583	0	36232	
7584	0	37264	
7585	0	37376	
7586	0	37184	
7587	0	36680	
7588	0	36112	
7589	0	35768	
7590	0	35812	
7591	0	36396	
7592	0	37052	
7593	0	37836	
7594	0	38696	
7595	0	38620	
7596	0	37824	
7597	0	36308	
7598	0	34776	
7599	0	33904	
7600	0	33360	
7601	0	33092	
7602	0	32641	
7603	0	32208	
7604	0	32296	
7605	0	32392	
7606	0	32532	
7607	0	32588	
7608	0	32208	
7609	0	31440	
7610	0	30640	
7611	0	30352	
7612	0	30492	
7613	0	30600	
7614	0	30288	
7615	0	29804	
7616	0	29336	
7617	0	28884	
7618	0	28496	
7619	0	28164	
7620	0	28908	
7621	0	30860	
7622	0	33612	
7623	0	37152	
7624	0	40492	
7625	0	42556	
7626	0	43512	
7627	0	44208	
7628	0	44728	
7629	0	43748	
7630	0	41616	
7631	0	38948	
7632	0	35568	
7633	0	32300	
7634	0	29224	
7635	0	26824	
7636	0	25528	
7637	0	25464	
7638	0	26328	
7639	0	27580	
7640	0	28718	
7641	0	29316	
7642	0	29456	
7643	0	29178	
7644	0	28792	
7645	0	28768	
7646	0	29080	
7647	0	29332	
7648	0	29300	
7649	0	28888	
7650	0	28392	
7651	0	28016	
7652	0	27908	
7653	0	28024	
7654	0	28076	
7655	0	28282	
7656	0	29112	
7657	0	30544	
7658	0	31688	
7659	0	32368	
7660	0	32820	
7661	0	32880	
7662	0	32572	
7663	0	32312	
7664	0	32262	
7665	0	32488	
7666	0	32756	
7667	0	33068	
7668	0	33368	
7669	0	33368	
7670	0	33660	
7671	0	34544	
7672	0	35504	
7673	0	36264	
7674	0	36592	
7675	0	36056	
7676	0	35344	
7677	0	35076	
7678	0	34908	
7679	0	34716	
7680	0	34932	
7681	0	35920	
7682	0	37168	
7683	0	38052	
7684	0	38704	
7685	0	38544	
7686	0	37532	
7687	0	35952	
7688	0	34456	
7689	0	32968	
7690	0	31488	
7691	0	30548	
7692	0	29552	
7693	0	28452	
7694	0	28092	
7695	0	28524	
7696	0	29080	
7697	0	28872	
7698	0	28396	
7699	0	28080	
7700	0	27966	
7701	0	28136	
7702	0	28536	
7703	0	29160	
7704	0	29580	
7705	0	29696	
7706	0	29776	
7707	0	29706	
7708	0	29632	
7709	0	29416	
7710	0	29082	
7711	0	28904	
7712	0	29272	
7713	0	29912	
7714	0	30764	
7715	0	31672	
7716	0	32448	
7717	0	33000	
7718	0	33036	
7719	0	32624	
7720	0	32198	
7721	0	32108	
7722	0	31964	
7723	0	32032	
7724	0	32444	
7725	0	33032	
7726	0	33392	
7727	0	33264	
7728	0	33112	
7729	0	33084	
7730	0	33096	
7731	0	32720	
7732	0	32204	
7733	0	32076	
7734	0	31904	
7735	0	31820	
7736	0	31352	
7737	0	30700	
7738	0	30992	
7739	0	31772	
7740	0	32456	
7741	0	32472	
7742	0	31740	
7743	0	30870	
7744	0	30192	
7745	0	29332	
7746	0	28756	
7747	0	28272	
7748	0	27580	
7749	0	27024	
7750	0	26872	
7751	0	27436	
7752	0	29056	
7753	0	31112	
7754	0	32932	
7755	0	34116	
7756	0	34320	
7757	0	34044	
7758	0	33776	
7759	0	33268	
7760	0	32344	
7761	0	31228	
7762	0	30212	
7763	0	29460	
7764	0	29196	
7765	0	29384	
7766	0	29780	
7767	0	30048	
7768	0	29404	
7769	0	28300	
7770	0	27592	
7771	0	27608	
7772	0	27776	
7773	0	28314	
7774	0	29720	
7775	0	31452	
7776	0	32432	
7777	0	32944	
7778	0	33480	
7779	0	34568	
7780	0	35348	
7781	0	35212	
7782	0	35100	
7783	0	34968	
7784	0	34628	
7785	0	33866	
7786	0	32880	
7787	0	32276	
7788	0	31784	
7789	0	31322	
7790	0	30888	
7791	0	30148	
7792	0	29724	
7793	0	29928	
7794	0	30388	
7795	0	31028	
7796	0	31624	
7797	0	31896	
7798	0	32034	
7799	0	32256	
7800	0	32368	
7801	0	32430	
7802	0	32620	
7803	0	32764	
7804	0	32756	
7805	0	32640	
7806	0	32664	
7807	0	32920	
7808	0	32888	
7809	0	32836	
7810	0	33096	
7811	0	33560	
7812	0	34028	
7813	0	34028	
7814	0	33648	
7815	0	32896	
7816	0	31744	
7817	0	30760	
7818	0	30000	
7819	0	29212	
7820	0	28492	
7821	0	28620	
7822	0	29408	
7823	0	30576	
7824	0	31752	
7825	0	32224	
7826	0	32112	
7827	0	31784	
7828	0	31528	
7829	0	31968	
7830	0	32416	
7831	0	32760	
7832	0	32984	
7833	0	32992	
7834	0	33056	
7835	0	33440	
7836	0	33880	
7837	0	34520	
7838	0	34804	
7839	0	34716	
7840	0	34392	
7841	0	33860	
7842	0	33272	
7843	0	32608	
7844	0	32132	
7845	0	31992	
7846	0	31812	
7847	0	31520	
7848	0	31292	
7849	0	31540	
7850	0	31584	
7851	0	30960	
7852	0	30592	
7853	0	31040	
7854	0	31348	
7855	0	31536	
7856	0	32160	
7857	0	32936	
7858	0	33624	
7859	0	34584	
7860	0	35376	
7861	0	35604	
7862	0	35264	
7863	0	35256	
7864	0	35144	
7865	0	34680	
7866	0	34044	
7867	0	33712	
7868	0	33496	
7869	0	33138	
7870	0	32792	
7871	0	32204	
7872	0	31276	
7873	0	30104	
7874	0	29324	
7875	0	29282	
7876	0	29422	
7877	0	29344	
7878	0	29548	
7879	0	30120	
7880	0	30528	
7881	0	30796	
7882	0	31304	
7883	0	32090	
7884	0	32488	
7885	0	32400	
7886	0	32264	
7887	0	32080	
7888	0	32174	
7889	0	32192	
7890	0	32084	
7891	0	31636	
7892	0	31168	
7893	0	31460	
7894	0	32516	
7895	0	33856	
7896	0	35152	
7897	0	35828	
7898	0	35784	
7899	0	35384	
7900	0	34624	
7901	0	33656	
7902	0	32552	
7903	0	31960	
7904	0	31780	
7905	0	31904	
7906	0	32516	
7907	0	32856	
7908	0	32756	
7909	0	32932	
7910	0	33424	
7911	0	33388	
7912	0	33068	
7913	0	32864	
7914	0	32752	
7915	0	32472	
7916	0	31824	
7917	0	31564	
7918	0	31872	
7919	0	31904	
7920	0	31272	
7921	0	30940	
7922	0	31384	
7923	0	31644	
7924	0	31028	
7925	0	30056	
7926	0	28896	
7927	0	28128	
7928	0	28008	
7929	0	28408	
7930	0	29012	
7931	0	29564	
7932	0	30556	
7933	0	31760	
7934	0	32560	
7935	0	33248	
7936	0	33752	
7937	0	34088	
7938	0	34328	
7939	0	34960	
7940	0	35794	
7941	0	36440	
7942	0	36708	
7943	0	36608	
7944	0	35968	
7945	0	34948	
7946	0	34056	
7947	0	33729	
7948	0	33836	
7949	0	33912	
7950	0	33866	
7951	0	33888	
7952	0	34040	
7953	0	34188	
7954	0	34116	
7955	0	34224	
7956	0	34508	
7957	0	35016	
7958	0	35544	
7959	0	35888	
7960	0	36418	
7961	0	36808	
7962	0	36956	
7963	0	37180	
7964	0	37100	
7965	0	36444	
7966	0	35912	
7967	0	36232	
7968	0	37404	
7969	0	38496	
7970	0	38928	
7971	0	38884	
7972	0	38496	
7973	0	37560	
7974	0	36256	
7975	0	36106	
7976	0	36740	
7977	0	37480	
7978	0	37984	
7979	0	37640	
7980	0	36848	
7981	0	35796	
7982	0	34304	
7983	0	32756	
7984	0	31480	
7985	0	30844	
7986	0	31112	
7987	0	31992	
7988	0	32820	
7989	0	33188	
7990	0	33216	
7991	0	32832	
7992	0	31876	
7993	0	30528	
7994	0	29272	
7995	0	27960	
7996	0	26726	
7997	0	25992	
7998	0	25972	
7999	0	26650	
8000	0	28060	
8001	0	29612	
8002	0	30720	
8003	0	31208	
8004	0	31492	
8005	0	31508	
8006	0	31760	
8007	0	32068	
8008	0	32208	
8009	0	32208	
8010	0	32282	
8011	0	32704	
8012	0	33450	
8013	0	33844	
8014	0	34012	
8015	0	33916	
8016	0	33808	
8017	0	33560	
8018	0	32964	
8019	0	32724	
8020	0	32644	
8021	0	32488	
8022	0	32348	
8023	0	32356	
8024	0	32472	
8025	0	32876	
8026	0	32832	
8027	0	32072	
8028	0	31296	
8029	0	31004	
8030	0	30950	
8031	0	30608	
8032	0	30672	
8033	0	31776	
8034	0	33620	
8035	0	35512	
8036	0	36736	
8037	0	36612	
8038	0	35508	
8039	0	34264	
8040	0	33112	
8041	0	31624	
8042	0	30148	
8043	0	28856	
8044	0	28264	
8045	0	28586	
8046	0	29496	
8047	0	30980	
8048	0	31900	
8049	0	32538	
8050	0	32592	
8051	0	32088	
8052	0	31464	
8053	0	30712	
8054	0	30224	
8055	0	30036	
8056	0	30188	
8057	0	30656	
8058	0	30952	
8059	0	31492	
8060	0	32356	
8061	0	33544	
8062	0	34592	
8063	0	35568	
8064	0	35672	
8065	0	34800	
8066	0	33602	
8067	0	32308	
8068	0	31184	
8069	0	30504	
8070	0	30608	
8071	0	31722	
8072	0	33720	
8073	0	35712	
8074	0	36672	
8075	0	36484	
8076	0	35652	
8077	0	35300	
8078	0	35080	
8079	0	34608	
8080	0	33952	
8081	0	32680	
8082	0	31476	
8083	0	30716	
8084	0	30564	
8085	0	30708	
8086	0	30604	
8087	0	30596	
8088	0	30952	
8089	0	31736	
8090	0	32712	
8091	0	33960	
8092	0	35256	
8093	0	35900	
8094	0	35812	
8095	0	35050	
8096	0	33848	
8097	0	33056	
8098	0	32244	
8099	0	31700	
8100	0	31604	
8101	0	31536	
8102	0	31532	
8103	0	31272	
8104	0	30820	
8105	0	30136	
8106	0	29868	
8107	0	30252	
8108	0	31276	
8109	0	32136	
8110	0	32628	
8111	0	33392	
8112	0	34364	
8113	0	35108	
8114	0	35784	
8115	0	36648	
8116	0	37720	
8117	0	38880	
8118	0	39920	
8119	0	40820	
8120	0	40648	
8121	0	39040	
8122	0	36808	
8123	0	34332	
8124	0	31684	
8125	0	29272	
8126	0	27320	
8127	0	26216	
8128	0	26444	
8129	0	27664	
8130	0	29016	
8131	0	29824	
8132	0	30252	
8133	0	30350	
8134	0	30168	
8135	0	30248	
8136	0	30868	
8137	0	31464	
8138	0	32004	
8139	0	32408	
8140	0	32817	
8141	0	32500	
8142	0	31540	
8143	0	30984	
8144	0	30742	
8145	0	31132	
8146	0	31920	
8147	0	32696	
8148	0	33420	
8149	0	33896	
8150	0	34060	
8151	0	34324	
8152	0	34592	
8153	0	34744	
8154	0	35116	
8155	0	35436	
8156	0	35112	
8157	0	34444	
8158	0	33952	
8159	0	33580	
8160	0	33304	
8161	0	33332	
8162	0	33616	
8163	0	33736	
8164	0	34032	
8165	0	34524	
8166	0	34864	
8167	0	34880	
8168	0	34876	
8169	0	35152	
8170	0	35232	
8171	0	35012	
8172	0	34992	
8173	0	35192	
8174	0	35332	
8175	0	35616	
8176	0	35972	
8177	0	36248	
8178	0	36560	
8179	0	36756	
8180	0	36720	
8181	0	36852	
8182	0	36728	
8183	0	36720	
8184	0	37272	
8185	0	37740	
8186	0	38544	
8187	0	39528	
8188	0	40112	
8189	0	40024	
8190	0	38976	
8191	0	37476	
8192	0	35844	
8193	0	34072	
8194	0	32176	
8195	0	30394	
8196	0	29180	
8197	0	28228	
8198	0	27494	
8199	0	27208	
8200	0	27008	
8201	0	26544	
8202	0	25884	
8203	0	25782	
8204	0	26096	
8205	0	26420	
8206	0	27120	
8207	0	29108	
8208	0	31728	
8209	0	34036	
8210	0	35616	
8211	0	36082	
8212	0	35764	
8213	0	35240	
8214	0	35188	
8215	0	35800	
8216	0	36320	
8217	0	36208	
8218	0	35696	
8219	0	34996	
8220	0	34416	
8221	0	34360	
8222	0	34700	
8223	0	34744	
8224	0	34520	
8225	0	34436	
8226	0	34456	
8227	0	34248	
8228	0	34000	
8229	0	33940	
8230	0	34052	
8231	0	34052	
8232	0	33572	
8233	0	33216	
8234	0	33304	
8235	0	33216	
8236	0	32848	
8237	0	32564	
8238	0	32544	
8239	0	32428	
8240	0	32132	
8241	0	32080	
8242	0	32732	
8243	0	33652	
8244	0	34296	
8245	0	35224	
8246	0	36096	
8247	0	36016	
8248	0	34904	
8249	0	33912	
8250	0	33396	
8251	0	33496	
8252	0	33596	
8253	0	33864	
8254	0	34456	
8255	0	35128	
8256	0	35172	
8257	0	34940	
8258	0	34568	
8259	0	34064	
8260	0	33012	
8261	0	31800	
8262	0	30924	
8263	0	30096	
8264	0	29072	
8265	0	28436	
8266	0	28890	
8267	0	29776	
8268	0	30716	
8269	0	31960	
8270	0	32892	
8271	0	33064	
8272	0	32836	
8273	0	32452	
8274	0	32136	
8275	0	32508	
8276	0	33016	
8277	0	33364	
8278	0	33204	
8279	0	32468	
8280	0	30860	
8281	0	28784	
8282	0	27048	
8283	0	26472	
8284	0	27120	
8285	0	28416	
8286	0	29320	
8287	0	30284	
8288	0	30896	
8289	0	30956	
8290	0	30592	
8291	0	30168	
8292	0	29746	
8293	0	29548	
8294	0	29620	
8295	0	29796	
8296	0	29548	
8297	0	29060	
8298	0	28208	
8299	0	27704	
8300	0	27600	
8301	0	27464	
8302	0	27232	
8303	0	27816	
8304	0	29296	
8305	0	30544	
8306	0	31248	
8307	0	31184	
8308	0	30384	
8309	0	29056	
8310	0	26760	
8311	0	24784	
8312	0	23848	
8313	0	23944	
8314	0	24392	
8315	0	25356	
8316	0	27296	
8317	0	29816	
8318	0	31792	
8319	0	32836	
8320	0	32964	
8321	0	33464	
8322	0	33856	
8323	0	33792	
8324	0	33176	
8325	0	32296	
8326	0	31540	
8327	0	30504	
8328	0	29806	
8329	0	29160	
8330	0	29232	
8331	0	29792	
8332	0	30192	
8333	0	30444	
8334	0	31880	
8335	0	33842	
8336	0	34888	
8337	0	34880	
8338	0	33916	
8339	0	32184	
8340	0	30776	
8341	0	30074	
8342	0	30936	
8343	0	32424	
8344	0	32528	
8345	0	31272	
8346	0	29824	
8347	0	28488	
8348	0	28080	
8349	0	28792	
8350	0	30128	
8351	0	31652	
8352	0	33304	
8353	0	35372	
8354	0	37656	
8355	0	39424	
8356	0	40202	
8357	0	39648	
8358	0	38536	
8359	0	37144	
8360	0	35420	
8361	0	33424	
8362	0	31780	
8363	0	31448	
8364	0	32196	
8365	0	33004	
8366	0	34068	
8367	0	35148	
8368	0	35632	
8369	0	35008	
8370	0	33784	
8371	0	32648	
8372	0	32664	
8373	0	33168	
8374	0	33680	
8375	0	34828	
8376	0	36788	
8377	0	38048	
8378	0	38292	
8379	0	37804	
8380	0	37332	
8381	0	36608	
8382	0	35620	
8383	0	34688	
8384	0	33664	
8385	0	33064	
8386	0	33520	
8387	0	34336	
8388	0	35700	
8389	0	36840	
8390	0	37580	
8391	0	38312	
8392	0	38052	
8393	0	37890	
8394	0	37568	
8395	0	36568	
8396	0	36136	
8397	0	36836	
8398	0	37460	
8399	0	37684	
8400	0	36692	
8401	0	34616	
8402	0	32704	
8403	0	31380	
8404	0	31612	
8405	0	33488	
8406	0	35592	
8407	0	37272	
8408	0	37880	
8409	0	36660	
8410	0	33956	
8411	0	31052	
8412	0	29288	
8413	0	28944	
8414	0	29200	
8415	0	29216	
8416	0	29696	
8417	0	30180	
8418	0	30904	
8419	0	32968	
8420	0	35944	
8421	0	38684	
8422	0	40508	
8423	0	40504	
8424	0	39552	
8425	0	38680	
8426	0	38544	
8427	0	39440	
8428	0	41088	
8429	0	42836	
8430	0	44600	
8431	0	45800	
8432	0	46228	
8433	0	46244	
8434	0	45308	
8435	0	43832	
8436	0	42140	
8437	0	40152	
8438	0	37856	
8439	0	34648	
8440	0	31444	
8441	0	28812	
8442	0	26976	
8443	0	26640	
8444	0	27952	
8445	0	29912	
8446	0	32552	
8447	0	35620	
8448	0	38856	
8449	0	41344	
8450	0	42788	
8451	0	43036	
8452	0	42680	
8453	0	41952	
8454	0	40280	
8455	0	38452	
8456	0	36776	
8457	0	34496	
8458	0	32040	
8459	0	30660	
8460	0	30800	
8461	0	32064	
8462	0	33596	
8463	0	35848	
8464	0	37936	
8465	0	39684	
8466	0	40948	
8467	0	41368	
8468	0	40416	
8469	0	37964	
8470	0	34872	
8471	0	32196	
8472	0	30128	
8473	0	29288	
8474	0	29576	
8475	0	31016	
8476	0	33392	
8477	0	35192	
8478	0	36244	
8479	0	37268	
8480	0	38316	
8481	0	39480	
8482	0	40480	
8483	0	40336	
8484	0	38540	
8485	0	35624	
8486	0	33032	
8487	0	31592	
8488	0	31216	
8489	0	32168	
8490	0	35100	
8491	0	37962	
8492	0	39492	
8493	0	39736	
8494	0	38480	
8495	0	35988	
8496	0	33376	
8497	0	31284	
8498	0	30244	
8499	0	30320	
8500	0	31528	
8501	0	32536	
8502	0	32484	
8503	0	31948	
8504	0	31224	
8505	0	30144	
8506	0	28976	
8507	0	27444	
8508	0	25792	
8509	0	24352	
8510	0	22324	
8511	0	20088	
8512	0	19200	
8513	0	19342	
8514	0	19392	
8515	0	20008	
8516	0	22728	
8517	0	27300	
8518	0	31352	
8519	0	34232	
8520	0	36608	
8521	0	38872	
8522	0	41516	
8523	0	43908	
8524	0	45076	
8525	0	45234	
8526	0	43880	
8527	0	41488	
8528	0	38656	
8529	0	35904	
8530	0	33648	
8531	0	32362	
8532	0	32604	
8533	0	33784	
8534	0	35384	
8535	0	36888	
8536	0	37696	
8537	0	37536	
8538	0	36024	
8539	0	33960	
8540	0	31948	
8541	0	30008	
8542	0	28072	
8543	0	26544	
8544	0	25370	
8545	0	25108	
8546	0	25488	
8547	0	25924	
8548	0	25972	
8549	0	26150	
8550	0	26704	
8551	0	27278	
8552	0	27932	
8553	0	29228	
8554	0	31028	
8555	0	32936	
8556	0	34832	
8557	0	36636	
8558	0	37948	
8559	0	38852	
8560	0	39192	
8561	0	39360	
8562	0	39356	
8563	0	38744	
8564	0	37776	
8565	0	36560	
8566	0	34874	
8567	0	32484	
8568	0	30172	
8569	0	29152	
8570	0	29620	
8571	0	30680	
8572	0	33010	
8573	0	35292	
8574	0	35828	
8575	0	35320	
8576	0	33992	
8577	0	32428	
8578	0	31100	
8579	0	29224	
8580	0	26976	
8581	0	24958	
8582	0	23488	
8583	0	22604	
8584	0	22580	
8585	0	23476	
8586	0	24896	
8587	0	25708	
8588	0	27336	
8589	0	29416	
8590	0	31716	
8591	0	35074	
8592	0	39208	
8593	0	43184	
8594	0	46042	
