# OpenSignals Text File Format. Version 1
# {"00:07:80:0F:31:47": {"position": 0, "device": "biosignalsplux", "device name": "00:07:80:0F:31:47", "device connection": "BTH00:07:80:0F:31:47", "sampling rate": 1000, "resolution": [16], "firmware version": 775, "comments": "", "keywords": "", "mode": 0, "sync interval": 2, "date": "2023-2-6", "time": "10:49:36.706", "channels": [1], "sensor": ["ECG"], "label": ["CH1"], "column": ["nSeq", "DI", "CH1"], "special": [{"SpO2": [80, 40, 5, 4, 3, 3]}, {"SpO2": [80, 40, 5, 4, 3, 3]}, {"SpO2": [80, 40, 5, 4, 3, 3]}, {"SpO2": [80, 40, 5, 4, 3, 3]}, {"SpO2": [80, 40, 5, 4, 3, 3]}, {"SpO2": [80, 40, 5, 4, 3, 3]}, {"SpO2": [80, 40, 5, 4, 3, 3]}, {"SpO2": [80, 40, 5, 4, 3, 3]}], "digital IO": [0, 1], "sleeve color": [""]}}
# EndOfHeader
0	0	34360	
1	0	34536	
2	0	34596	
3	0	34504	
4	0	34280	
5	0	34188	
6	0	34302	
7	0	34440	
8	0	34550	
9	0	34584	
10	0	34448	
11	0	34092	
12	0	33572	
13	0	32928	
14	0	32336	
15	0	32124	
16	0	32304	
17	0	32720	
18	0	33244	
19	0	33640	
20	0	33912	
21	0	33936	
22	0	33850	
23	0	33636	
24	0	33376	
25	0	33356	
26	0	33528	
27	0	33712	
28	0	33704	
29	0	33520	
30	0	33180	
31	0	32722	
32	0	32140	
33	0	31512	
34	0	30952	
35	0	30800	
36	0	31080	
37	0	31612	
38	0	32140	
39	0	32588	
40	0	32984	
41	0	33196	
42	0	33164	
43	0	32964	
44	0	32700	
45	0	32612	
46	0	32792	
47	0	33008	
48	0	33140	
49	0	33140	
50	0	33008	
51	0	32652	
52	0	32124	
53	0	31552	
54	0	31048	
55	0	30864	
56	0	31108	
57	0	31656	
58	0	32240	
59	0	32740	
60	0	33048	
61	0	33168	
62	0	33184	
63	0	33008	
64	0	32724	
65	0	32728	
66	0	32928	
67	0	33080	
68	0	33200	
69	0	33216	
70	0	33068	
71	0	32668	
72	0	32136	
73	0	31490	
74	0	30932	
75	0	30820	
76	0	31104	
77	0	31576	
78	0	32136	
79	0	32692	
80	0	33160	
81	0	33404	
82	0	33388	
83	0	33224	
84	0	32940	
85	0	32816	
86	0	32984	
87	0	33292	
88	0	33568	
89	0	33744	
90	0	33760	
91	0	33600	
92	0	33276	
93	0	32736	
94	0	32224	
95	0	32292	
96	0	32892	
97	0	33844	
98	0	34840	
99	0	35752	
100	0	36544	
101	0	36992	
102	0	37124	
103	0	37080	
104	0	37060	
105	0	37296	
106	0	37724	
107	0	38168	
108	0	38564	
109	0	38880	
110	0	39240	
111	0	39660	
112	0	40044	
113	0	40300	
114	0	40296	
115	0	40344	
116	0	40568	
117	0	40868	
118	0	41080	
119	0	41136	
120	0	40900	
121	0	40336	
122	0	39624	
123	0	39016	
124	0	38532	
125	0	38264	
126	0	38160	
127	0	37964	
128	0	37560	
129	0	37128	
130	0	36684	
131	0	36192	
132	0	35680	
133	0	35004	
134	0	34300	
135	0	33976	
136	0	34026	
137	0	34220	
138	0	34360	
139	0	34480	
140	0	34544	
141	0	34426	
142	0	34168	
143	0	33692	
144	0	33088	
145	0	32696	
146	0	32634	
147	0	32668	
148	0	32704	
149	0	32572	
150	0	32244	
151	0	31800	
152	0	31284	
153	0	30688	
154	0	30136	
155	0	30008	
156	0	30320	
157	0	30848	
158	0	31364	
159	0	31836	
160	0	32224	
161	0	32408	
162	0	32396	
163	0	32226	
164	0	31924	
165	0	31832	
166	0	31960	
167	0	32132	
168	0	32250	
169	0	32256	
170	0	32082	
171	0	31692	
172	0	31144	
173	0	30582	
174	0	30096	
175	0	29908	
176	0	30148	
177	0	30648	
178	0	31260	
179	0	31800	
180	0	32180	
181	0	32372	
182	0	32356	
183	0	32112	
184	0	31760	
185	0	31644	
186	0	31768	
187	0	31984	
188	0	32132	
189	0	32208	
190	0	32084	
191	0	31712	
192	0	31220	
193	0	30648	
194	0	30124	
195	0	30026	
196	0	30312	
197	0	30842	
198	0	31384	
199	0	31892	
200	0	32300	
201	0	32496	
202	0	32452	
203	0	32244	
204	0	31886	
205	0	31748	
206	0	32012	
207	0	32352	
208	0	32528	
209	0	32536	
210	0	32392	
211	0	32056	
212	0	31600	
213	0	31090	
214	0	30608	
215	0	30476	
216	0	30726	
217	0	31204	
218	0	31720	
219	0	32168	
220	0	32480	
221	0	32608	
222	0	32682	
223	0	32624	
224	0	32384	
225	0	32304	
226	0	32464	
227	0	32592	
228	0	32576	
229	0	32576	
230	0	32460	
231	0	32136	
232	0	31640	
233	0	31052	
234	0	30600	
235	0	30456	
236	0	30744	
237	0	31344	
238	0	31944	
239	0	32436	
240	0	32812	
241	0	32976	
242	0	32908	
243	0	32732	
244	0	32466	
245	0	32424	
246	0	32600	
247	0	32820	
248	0	33002	
249	0	33032	
250	0	32876	
251	0	32464	
252	0	31984	
253	0	31452	
254	0	30968	
255	0	30906	
256	0	31196	
257	0	31672	
258	0	32232	
259	0	32722	
260	0	33060	
261	0	33260	
262	0	33256	
263	0	33048	
264	0	32768	
265	0	32676	
266	0	32864	
267	0	33152	
268	0	33298	
269	0	33292	
270	0	33100	
271	0	32712	
272	0	32192	
273	0	31652	
274	0	31160	
275	0	30976	
276	0	31268	
277	0	31836	
278	0	32480	
279	0	33024	
280	0	33364	
281	0	33524	
282	0	33536	
283	0	33340	
284	0	33064	
285	0	33056	
286	0	33248	
287	0	33504	
288	0	33621	
289	0	33584	
290	0	33416	
291	0	33068	
292	0	32580	
293	0	32032	
294	0	31532	
295	0	31436	
296	0	31720	
297	0	32260	
298	0	32792	
299	0	33336	
300	0	33732	
301	0	33952	
302	0	33984	
303	0	33836	
304	0	33612	
305	0	33624	
306	0	33808	
307	0	34020	
308	0	34188	
309	0	34276	
310	0	34108	
311	0	33696	
312	0	33164	
313	0	32524	
314	0	31932	
315	0	31760	
316	0	32064	
317	0	32656	
318	0	33260	
319	0	33776	
320	0	34188	
321	0	34416	
322	0	34480	
323	0	34396	
324	0	34248	
325	0	34264	
326	0	34426	
327	0	34680	
328	0	34884	
329	0	34906	
330	0	34740	
331	0	34384	
332	0	33952	
333	0	33440	
334	0	32976	
335	0	32884	
336	0	33100	
337	0	33540	
338	0	34112	
339	0	34668	
340	0	35064	
341	0	35260	
342	0	35312	
343	0	35186	
344	0	34968	
345	0	34900	
346	0	35040	
347	0	35300	
348	0	35496	
349	0	35568	
350	0	35476	
351	0	35104	
352	0	34580	
353	0	34036	
354	0	33520	
355	0	33412	
356	0	33656	
357	0	34144	
358	0	34680	
359	0	35176	
360	0	35580	
361	0	35804	
362	0	35792	
363	0	35616	
364	0	35358	
365	0	35240	
366	0	35348	
367	0	35536	
368	0	35616	
369	0	35608	
370	0	35444	
371	0	35124	
372	0	34680	
373	0	34192	
374	0	33684	
375	0	33448	
376	0	33640	
377	0	34042	
378	0	34488	
379	0	34936	
380	0	35312	
381	0	35500	
382	0	35480	
383	0	35232	
384	0	34866	
385	0	34748	
386	0	34856	
387	0	34996	
388	0	35056	
389	0	34992	
390	0	34768	
391	0	34392	
392	0	33936	
393	0	33352	
394	0	32792	
395	0	32548	
396	0	32656	
397	0	33026	
398	0	33432	
399	0	33796	
400	0	34076	
401	0	34168	
402	0	34058	
403	0	33764	
404	0	33384	
405	0	33208	
406	0	33272	
407	0	33400	
408	0	33488	
409	0	33458	
410	0	33200	
411	0	32700	
412	0	32068	
413	0	31362	
414	0	30768	
415	0	30540	
416	0	30736	
417	0	31216	
418	0	31768	
419	0	32224	
420	0	32552	
421	0	32708	
422	0	32592	
423	0	32324	
424	0	32056	
425	0	31922	
426	0	32040	
427	0	32224	
428	0	32304	
429	0	32212	
430	0	31944	
431	0	31540	
432	0	30980	
433	0	30328	
434	0	29805	
435	0	29672	
436	0	29892	
437	0	30384	
438	0	30892	
439	0	31356	
440	0	31716	
441	0	31864	
442	0	31824	
443	0	31620	
444	0	31368	
445	0	31336	
446	0	31456	
447	0	31648	
448	0	31792	
449	0	31800	
450	0	31604	
451	0	31200	
452	0	30672	
453	0	30104	
454	0	29632	
455	0	29500	
456	0	29740	
457	0	30256	
458	0	30792	
459	0	31236	
460	0	31576	
461	0	31744	
462	0	31736	
463	0	31600	
464	0	31432	
465	0	31376	
466	0	31512	
467	0	31668	
468	0	31816	
469	0	31920	
470	0	31752	
471	0	31352	
472	0	30828	
473	0	30308	
474	0	29792	
475	0	29616	
476	0	29848	
477	0	30392	
478	0	30952	
479	0	31416	
480	0	31712	
481	0	31832	
482	0	31796	
483	0	31556	
484	0	31244	
485	0	31252	
486	0	31464	
487	0	31736	
488	0	31912	
489	0	31908	
490	0	31812	
491	0	31604	
492	0	31148	
493	0	30500	
494	0	29908	
495	0	29774	
496	0	30072	
497	0	30572	
498	0	31052	
499	0	31512	
500	0	31914	
501	0	32144	
502	0	32112	
503	0	31876	
504	0	31640	
505	0	31664	
506	0	31848	
507	0	32052	
508	0	32132	
509	0	32104	
510	0	31956	
511	0	31604	
512	0	31112	
513	0	30612	
514	0	30168	
515	0	30064	
516	0	30384	
517	0	30936	
518	0	31520	
519	0	32008	
520	0	32336	
521	0	32437	
522	0	32424	
523	0	32280	
524	0	32028	
525	0	31920	
526	0	32044	
527	0	32252	
528	0	32440	
529	0	32548	
530	0	32418	
531	0	32024	
532	0	31568	
533	0	31004	
534	0	30480	
535	0	30340	
536	0	30600	
537	0	31116	
538	0	31636	
539	0	32120	
540	0	32544	
541	0	32744	
542	0	32762	
543	0	32572	
544	0	32296	
545	0	32204	
546	0	32348	
547	0	32596	
548	0	32772	
549	0	32736	
550	0	32504	
551	0	32138	
552	0	31648	
553	0	31112	
554	0	30608	
555	0	30484	
556	0	30740	
557	0	31272	
558	0	31808	
559	0	32304	
560	0	32676	
561	0	32804	
562	0	32784	
563	0	32660	
564	0	32472	
565	0	32456	
566	0	32596	
567	0	32792	
568	0	32880	
569	0	32812	
570	0	32656	
571	0	32320	
572	0	31856	
573	0	31316	
574	0	30864	
575	0	30740	
576	0	30944	
577	0	31412	
578	0	31936	
579	0	32448	
580	0	32856	
581	0	32984	
582	0	32912	
583	0	32762	
584	0	32528	
585	0	32464	
586	0	32600	
587	0	32816	
588	0	32896	
589	0	32856	
590	0	32774	
591	0	32496	
592	0	31968	
593	0	31368	
594	0	30872	
595	0	30764	
596	0	31004	
597	0	31500	
598	0	32072	
599	0	32544	
600	0	32956	
601	0	33184	
602	0	33236	
603	0	33068	
604	0	32792	
605	0	32696	
606	0	32772	
607	0	32972	
608	0	33064	
609	0	32980	
610	0	32730	
611	0	32400	
612	0	31876	
613	0	31392	
614	0	30952	
615	0	30768	
616	0	30976	
617	0	31496	
618	0	32088	
619	0	32580	
620	0	32908	
621	0	32996	
622	0	32974	
623	0	32789	
624	0	32504	
625	0	32512	
626	0	32804	
627	0	33064	
628	0	33120	
629	0	33060	
630	0	32876	
631	0	32424	
632	0	31900	
633	0	31388	
634	0	30936	
635	0	30796	
636	0	31040	
637	0	31504	
638	0	32024	
639	0	32496	
640	0	32864	
641	0	33008	
642	0	32964	
643	0	32760	
644	0	32468	
645	0	32488	
646	0	32744	
647	0	32992	
648	0	33156	
649	0	33124	
650	0	32836	
651	0	32448	
652	0	31964	
653	0	31440	
654	0	30972	
655	0	30832	
656	0	31104	
657	0	31576	
658	0	32072	
659	0	32524	
660	0	32852	
661	0	33053	
662	0	33072	
663	0	32952	
664	0	32744	
665	0	32664	
666	0	32824	
667	0	33044	
668	0	33228	
669	0	33232	
670	0	33070	
671	0	32816	
672	0	32360	
673	0	31778	
674	0	31224	
675	0	31000	
676	0	31184	
677	0	31712	
678	0	32268	
679	0	32720	
680	0	33080	
681	0	33284	
682	0	33268	
683	0	33020	
684	0	32656	
685	0	32512	
686	0	32604	
687	0	32874	
688	0	33112	
689	0	33180	
690	0	33066	
691	0	32698	
692	0	32156	
693	0	31548	
694	0	31052	
695	0	30936	
696	0	31192	
697	0	31688	
698	0	32268	
699	0	32744	
700	0	33128	
701	0	33312	
702	0	33328	
703	0	33136	
704	0	32904	
705	0	32884	
706	0	33036	
707	0	33216	
708	0	33376	
709	0	33384	
710	0	33184	
711	0	32796	
712	0	32300	
713	0	31740	
714	0	31228	
715	0	31088	
716	0	31306	
717	0	31776	
718	0	32288	
719	0	32760	
720	0	33172	
721	0	33369	
722	0	33328	
723	0	33130	
724	0	32836	
725	0	32744	
726	0	32960	
727	0	33240	
728	0	33408	
729	0	33376	
730	0	33080	
731	0	32688	
732	0	32168	
733	0	31616	
734	0	31160	
735	0	31020	
736	0	31280	
737	0	31816	
738	0	32336	
739	0	32840	
740	0	33304	
741	0	33552	
742	0	33500	
743	0	33272	
744	0	33040	
745	0	33008	
746	0	33092	
747	0	33176	
748	0	33272	
749	0	33280	
750	0	33136	
751	0	32752	
752	0	32208	
753	0	31688	
754	0	31256	
755	0	31116	
756	0	31424	
757	0	31956	
758	0	32502	
759	0	32960	
760	0	33288	
761	0	33416	
762	0	33404	
763	0	33272	
764	0	33024	
765	0	32892	
766	0	33056	
767	0	33304	
768	0	33448	
769	0	33440	
770	0	33236	
771	0	32864	
772	0	32376	
773	0	31872	
774	0	31372	
775	0	31224	
776	0	31444	
777	0	31968	
778	0	32552	
779	0	33032	
780	0	33404	
781	0	33616	
782	0	33680	
783	0	33472	
784	0	33104	
785	0	32910	
786	0	32986	
787	0	33188	
788	0	33384	
789	0	33436	
790	0	33316	
791	0	32912	
792	0	32436	
793	0	31924	
794	0	31460	
795	0	31308	
796	0	31528	
797	0	31996	
798	0	32540	
799	0	33024	
800	0	33344	
801	0	33512	
802	0	33518	
803	0	33346	
804	0	33088	
805	0	33064	
806	0	33304	
807	0	33516	
808	0	33632	
809	0	33624	
810	0	33424	
811	0	33052	
812	0	32548	
813	0	31960	
814	0	31420	
815	0	31264	
816	0	31512	
817	0	32024	
818	0	32548	
819	0	32994	
820	0	33356	
821	0	33640	
822	0	33752	
823	0	33544	
824	0	33204	
825	0	33096	
826	0	33280	
827	0	33522	
828	0	33680	
829	0	33644	
830	0	33396	
831	0	32964	
832	0	32461	
833	0	31956	
834	0	31484	
835	0	31350	
836	0	31648	
837	0	32152	
838	0	32680	
839	0	33088	
840	0	33392	
841	0	33576	
842	0	33532	
843	0	33320	
844	0	33040	
845	0	33000	
846	0	33192	
847	0	33448	
848	0	33596	
849	0	33576	
850	0	33324	
851	0	32952	
852	0	32472	
853	0	31988	
854	0	31484	
855	0	31288	
856	0	31504	
857	0	32032	
858	0	32596	
859	0	33064	
860	0	33416	
861	0	33612	
862	0	33584	
863	0	33400	
864	0	33172	
865	0	33144	
866	0	33264	
867	0	33460	
868	0	33642	
869	0	33688	
870	0	33524	
871	0	33132	
872	0	32584	
873	0	31988	
874	0	31456	
875	0	31356	
876	0	31580	
877	0	32092	
878	0	32608	
879	0	33128	
880	0	33488	
881	0	33612	
882	0	33624	
883	0	33480	
884	0	33216	
885	0	33168	
886	0	33368	
887	0	33616	
888	0	33748	
889	0	33660	
890	0	33370	
891	0	32952	
892	0	32480	
893	0	31992	
894	0	31536	
895	0	31450	
896	0	31700	
897	0	32226	
898	0	32756	
899	0	33196	
900	0	33472	
901	0	33616	
902	0	33564	
903	0	33380	
904	0	33144	
905	0	33148	
906	0	33284	
907	0	33488	
908	0	33624	
909	0	33652	
910	0	33488	
911	0	33104	
912	0	32592	
913	0	32066	
914	0	31628	
915	0	31540	
916	0	31728	
917	0	32204	
918	0	32768	
919	0	33232	
920	0	33536	
921	0	33676	
922	0	33592	
923	0	33296	
924	0	32984	
925	0	32972	
926	0	33218	
927	0	33464	
928	0	33648	
929	0	33664	
930	0	33480	
931	0	33128	
932	0	32688	
933	0	32240	
934	0	31808	
935	0	31736	
936	0	32068	
937	0	32504	
938	0	32928	
939	0	33344	
940	0	33690	
941	0	33904	
942	0	33936	
943	0	33784	
944	0	33656	
945	0	33736	
946	0	34016	
947	0	34312	
948	0	34480	
949	0	34496	
950	0	34296	
951	0	33932	
952	0	33400	
953	0	32792	
954	0	32276	
955	0	32064	
956	0	32212	
957	0	32668	
958	0	33240	
959	0	33744	
960	0	34064	
961	0	34236	
962	0	34256	
963	0	34072	
964	0	33888	
965	0	33876	
966	0	34004	
967	0	34184	
968	0	34288	
969	0	34296	
970	0	34144	
971	0	33812	
972	0	33356	
973	0	32768	
974	0	32264	
975	0	32264	
976	0	32632	
977	0	33152	
978	0	33636	
979	0	34136	
980	0	34588	
981	0	34792	
982	0	34804	
983	0	34648	
984	0	34394	
985	0	34320	
986	0	34424	
987	0	34592	
988	0	34626	
989	0	34572	
990	0	34404	
991	0	34008	
992	0	33452	
993	0	32828	
994	0	32332	
995	0	32128	
996	0	32232	
997	0	32620	
998	0	33028	
999	0	33400	
1000	0	33744	
1001	0	33924	
1002	0	33832	
1003	0	33556	
1004	0	33312	
1005	0	33344	
1006	0	33512	
1007	0	33616	
1008	0	33648	
1009	0	33534	
1010	0	33232	
1011	0	32770	
1012	0	32280	
1013	0	31704	
1014	0	31236	
1015	0	31088	
1016	0	31292	
1017	0	31728	
1018	0	32264	
1019	0	32744	
1020	0	33072	
1021	0	33204	
1022	0	33152	
1023	0	32952	
1024	0	32636	
1025	0	32584	
1026	0	32760	
1027	0	33032	
1028	0	33220	
1029	0	33244	
1030	0	33040	
1031	0	32688	
1032	0	32104	
1033	0	31484	
1034	0	31032	
1035	0	31020	
1036	0	31324	
1037	0	31844	
1038	0	32348	
1039	0	32784	
1040	0	33120	
1041	0	33300	
1042	0	33312	
1043	0	33128	
1044	0	32860	
1045	0	32808	
1046	0	32912	
1047	0	33072	
1048	0	33172	
1049	0	33082	
1050	0	32828	
1051	0	32512	
1052	0	32020	
1053	0	31452	
1054	0	30976	
1055	0	30880	
1056	0	31192	
1057	0	31680	
1058	0	32228	
1059	0	32780	
1060	0	33248	
1061	0	33508	
1062	0	33578	
1063	0	33408	
1064	0	33164	
1065	0	33104	
1066	0	33300	
1067	0	33484	
1068	0	33632	
1069	0	33756	
1070	0	33668	
1071	0	33476	
1072	0	33200	
1073	0	32768	
1074	0	32392	
1075	0	32624	
1076	0	33316	
1077	0	34200	
1078	0	35100	
1079	0	35928	
1080	0	36636	
1081	0	37040	
1082	0	37252	
1083	0	37312	
1084	0	37312	
1085	0	37492	
1086	0	37816	
1087	0	38216	
1088	0	38672	
1089	0	39092	
1090	0	39504	
1091	0	39976	
1092	0	40360	
1093	0	40548	
1094	0	40408	
1095	0	40328	
1096	0	40420	
1097	0	40576	
1098	0	40672	
1099	0	40616	
1100	0	40256	
1101	0	39648	
1102	0	39080	
1103	0	38656	
1104	0	38288	
1105	0	38056	
1106	0	37888	
1107	0	37600	
1108	0	37292	
1109	0	37040	
1110	0	36728	
1111	0	36304	
1112	0	35724	
1113	0	35048	
1114	0	34284	
1115	0	33980	
1116	0	33956	
1117	0	34080	
1118	0	34311	
1119	0	34464	
1120	0	34488	
1121	0	34300	
1122	0	33912	
1123	0	33420	
1124	0	32824	
1125	0	32512	
1126	0	32512	
1127	0	32596	
1128	0	32616	
1129	0	32464	
1130	0	32212	
1131	0	31848	
1132	0	31364	
1133	0	30816	
1134	0	30332	
1135	0	30196	
1136	0	30404	
1137	0	30821	
1138	0	31340	
1139	0	31760	
1140	0	32016	
1141	0	32228	
1142	0	32272	
1143	0	32048	
1144	0	31716	
1145	0	31600	
1146	0	31832	
1147	0	32060	
1148	0	32180	
1149	0	32138	
1150	0	31926	
1151	0	31608	
1152	0	31192	
1153	0	30572	
1154	0	30024	
1155	0	29952	
1156	0	30280	
1157	0	30780	
1158	0	31322	
1159	0	31832	
1160	0	32200	
1161	0	32372	
1162	0	32352	
1163	0	32168	
1164	0	31932	
1165	0	31912	
1166	0	32026	
1167	0	32144	
1168	0	32224	
1169	0	32264	
1170	0	32104	
1171	0	31704	
1172	0	31088	
1173	0	30556	
1174	0	30176	
1175	0	30088	
1176	0	30296	
1177	0	30648	
1178	0	31212	
1179	0	31760	
1180	0	32216	
1181	0	32416	
1182	0	32484	
1183	0	32324	
1184	0	32068	
1185	0	32034	
1186	0	32192	
1187	0	32408	
1188	0	32506	
1189	0	32464	
1190	0	32246	
1191	0	31916	
1192	0	31448	
1193	0	30896	
1194	0	30448	
1195	0	30364	
1196	0	30640	
1197	0	31120	
1198	0	31688	
1199	0	32208	
1200	0	32604	
1201	0	32828	
1202	0	32768	
1203	0	32536	
1204	0	32322	
1205	0	32324	
1206	0	32408	
1207	0	32520	
1208	0	32628	
1209	0	32704	
1210	0	32500	
1211	0	32112	
1212	0	31572	
1213	0	30984	
1214	0	30484	
1215	0	30360	
1216	0	30682	
1217	0	31288	
1218	0	31840	
1219	0	32336	
1220	0	32748	
1221	0	32920	
1222	0	32952	
1223	0	32814	
1224	0	32568	
1225	0	32528	
1226	0	32740	
1227	0	32872	
1228	0	32968	
1229	0	32928	
1230	0	32774	
1231	0	32432	
1232	0	31840	
1233	0	31180	
1234	0	30744	
1235	0	30748	
1236	0	31076	
1237	0	31488	
1238	0	32000	
1239	0	32540	
1240	0	33044	
1241	0	33296	
1242	0	33276	
1243	0	33140	
1244	0	32892	
1245	0	32824	
1246	0	33000	
1247	0	33208	
1248	0	33288	
1249	0	33322	
1250	0	33128	
1251	0	32656	
1252	0	32152	
1253	0	31548	
1254	0	31068	
1255	0	31057	
1256	0	31380	
1257	0	31896	
1258	0	32476	
1259	0	32952	
1260	0	33272	
1261	0	33412	
1262	0	33388	
1263	0	33194	
1264	0	32880	
1265	0	32860	
1266	0	33144	
1267	0	33400	
1268	0	33576	
1269	0	33580	
1270	0	33484	
1271	0	33264	
1272	0	32800	
1273	0	32192	
1274	0	31608	
1275	0	31430	
1276	0	31704	
1277	0	32328	
1278	0	32884	
1279	0	33352	
1280	0	33716	
1281	0	34016	
1282	0	34124	
1283	0	33960	
1284	0	33732	
1285	0	33652	
1286	0	33756	
1287	0	34040	
1288	0	34256	
1289	0	34224	
1290	0	33968	
1291	0	33592	
1292	0	33124	
1293	0	32544	
1294	0	32040	
1295	0	31964	
1296	0	32312	
1297	0	32896	
1298	0	33400	
1299	0	33816	
1300	0	34210	
1301	0	34456	
1302	0	34504	
1303	0	34340	
1304	0	34128	
1305	0	34164	
1306	0	34364	
1307	0	34572	
1308	0	34704	
1309	0	34696	
1310	0	34552	
1311	0	34280	
1312	0	33864	
1313	0	33304	
1314	0	32768	
1315	0	32692	
1316	0	33036	
1317	0	33600	
1318	0	34232	
1319	0	34660	
1320	0	34964	
1321	0	35184	
1322	0	35236	
1323	0	35068	
1324	0	34800	
1325	0	34776	
1326	0	34960	
1327	0	35192	
1328	0	35380	
1329	0	35388	
1330	0	35216	
1331	0	34912	
1332	0	34448	
1333	0	33892	
1334	0	33472	
1335	0	33520	
1336	0	33916	
1337	0	34344	
1338	0	34784	
1339	0	35208	
1340	0	35504	
1341	0	35616	
1342	0	35540	
1343	0	35330	
1344	0	35084	
1345	0	35068	
1346	0	35264	
1347	0	35472	
1348	0	35624	
1349	0	35624	
1350	0	35456	
1351	0	35096	
1352	0	34656	
1353	0	34188	
1354	0	33692	
1355	0	33500	
1356	0	33672	
1357	0	34168	
1358	0	34704	
1359	0	35112	
1360	0	35456	
1361	0	35572	
1362	0	35546	
1363	0	35328	
1364	0	34920	
1365	0	34716	
1366	0	34916	
1367	0	35216	
1368	0	35312	
1369	0	35256	
1370	0	35008	
1371	0	34520	
1372	0	33960	
1373	0	33336	
1374	0	32768	
1375	0	32560	
1376	0	32768	
1377	0	33216	
1378	0	33664	
1379	0	34008	
1380	0	34152	
1381	0	34168	
1382	0	34096	
1383	0	33856	
1384	0	33444	
1385	0	33232	
1386	0	33280	
1387	0	33416	
1388	0	33480	
1389	0	33376	
1390	0	33144	
1391	0	32720	
1392	0	32172	
1393	0	31540	
1394	0	30944	
1395	0	30744	
1396	0	30992	
1397	0	31424	
1398	0	31876	
1399	0	32312	
1400	0	32656	
1401	0	32688	
1402	0	32588	
1403	0	32356	
1404	0	32028	
1405	0	31884	
1406	0	32028	
1407	0	32292	
1408	0	32332	
1409	0	32164	
1410	0	31888	
1411	0	31440	
1412	0	30938	
1413	0	30370	
1414	0	29852	
1415	0	29688	
1416	0	29930	
1417	0	30428	
1418	0	30936	
1419	0	31332	
1420	0	31596	
1421	0	31700	
1422	0	31690	
1423	0	31452	
1424	0	31128	
1425	0	31130	
1426	0	31304	
1427	0	31544	
1428	0	31748	
1429	0	31728	
1430	0	31472	
1431	0	31032	
1432	0	30492	
1433	0	30000	
1434	0	29540	
1435	0	29424	
1436	0	29680	
1437	0	30136	
1438	0	30568	
1439	0	31000	
1440	0	31424	
1441	0	31740	
1442	0	31770	
1443	0	31524	
1444	0	31216	
1445	0	31192	
1446	0	31413	
1447	0	31648	
1448	0	31768	
1449	0	31760	
1450	0	31568	
1451	0	31156	
1452	0	30674	
1453	0	30096	
1454	0	29688	
1455	0	29740	
1456	0	30092	
1457	0	30544	
1458	0	31008	
1459	0	31450	
1460	0	31752	
1461	0	31905	
1462	0	31872	
1463	0	31764	
1464	0	31556	
1465	0	31468	
1466	0	31636	
1467	0	31832	
1468	0	31952	
1469	0	31936	
1470	0	31756	
1471	0	31376	
1472	0	30900	
1473	0	30368	
1474	0	29880	
1475	0	29696	
1476	0	29968	
1477	0	30500	
1478	0	30964	
1479	0	31416	
1480	0	31820	
1481	0	32024	
1482	0	32016	
1483	0	31812	
1484	0	31510	
1485	0	31448	
1486	0	31692	
1487	0	31960	
1488	0	32152	
1489	0	32164	
1490	0	31952	
1491	0	31552	
1492	0	31168	
1493	0	30668	
1494	0	30124	
1495	0	30000	
1496	0	30224	
1497	0	30672	
1498	0	31260	
1499	0	31810	
1500	0	32152	
1501	0	32274	
1502	0	32232	
1503	0	32120	
1504	0	31924	
1505	0	31928	
1506	0	32112	
1507	0	32296	
1508	0	32412	
1509	0	32352	
1510	0	32156	
1511	0	31836	
1512	0	31392	
1513	0	30924	
1514	0	30468	
1515	0	30324	
1516	0	30608	
1517	0	31076	
1518	0	31536	
1519	0	31992	
1520	0	32376	
1521	0	32488	
1522	0	32436	
1523	0	32344	
1524	0	32080	
1525	0	31946	
1526	0	32100	
1527	0	32364	
1528	0	32548	
1529	0	32580	
1530	0	32440	
1531	0	32072	
1532	0	31532	
1533	0	30958	
1534	0	30564	
1535	0	30480	
1536	0	30680	
1537	0	31168	
1538	0	31672	
1539	0	32140	
1540	0	32520	
1541	0	32668	
1542	0	32616	
1543	0	32394	
1544	0	32128	
1545	0	32090	
1546	0	32380	
1547	0	32608	
1548	0	32720	
1549	0	32690	
1550	0	32472	
1551	0	32170	
1552	0	31768	
1553	0	31224	
1554	0	30732	
1555	0	30596	
1556	0	30772	
1557	0	31140	
1558	0	31716	
1559	0	32208	
1560	0	32544	
1561	0	32752	
1562	0	32744	
1563	0	32636	
1564	0	32400	
1565	0	32340	
1566	0	32512	
1567	0	32740	
1568	0	32904	
1569	0	32900	
1570	0	32688	
1571	0	32324	
1572	0	31880	
1573	0	31304	
1574	0	30826	
1575	0	30720	
1576	0	30960	
1577	0	31488	
1578	0	32072	
1579	0	32560	
1580	0	32952	
1581	0	33136	
1582	0	33064	
1583	0	32808	
1584	0	32568	
1585	0	32424	
1586	0	32488	
1587	0	32800	
1588	0	32992	
1589	0	32980	
1590	0	32852	
1591	0	32460	
1592	0	31988	
1593	0	31474	
1594	0	31068	
1595	0	30970	
1596	0	31220	
1597	0	31648	
1598	0	32152	
1599	0	32588	
1600	0	32880	
1601	0	32996	
1602	0	33004	
1603	0	32832	
1604	0	32560	
1605	0	32570	
1606	0	32756	
1607	0	32880	
1608	0	32897	
1609	0	32868	
1610	0	32774	
1611	0	32428	
1612	0	31932	
1613	0	31396	
1614	0	30888	
1615	0	30760	
1616	0	30990	
1617	0	31512	
1618	0	31988	
1619	0	32396	
1620	0	32724	
1621	0	32896	
1622	0	32856	
1623	0	32748	
1624	0	32544	
1625	0	32532	
1626	0	32668	
1627	0	32872	
1628	0	33016	
1629	0	33084	
1630	0	32936	
1631	0	32536	
1632	0	32080	
1633	0	31564	
1634	0	31040	
1635	0	30916	
1636	0	31216	
1637	0	31752	
1638	0	32288	
1639	0	32720	
1640	0	33000	
1641	0	33130	
1642	0	33096	
1643	0	32928	
1644	0	32632	
1645	0	32528	
1646	0	32640	
1647	0	32868	
1648	0	33064	
1649	0	32988	
1650	0	32776	
1651	0	32468	
1652	0	32008	
1653	0	31492	
1654	0	31064	
1655	0	31000	
1656	0	31256	
1657	0	31668	
1658	0	32140	
1659	0	32592	
1660	0	32960	
1661	0	33180	
1662	0	33228	
1663	0	32964	
1664	0	32688	
1665	0	32604	
1666	0	32796	
1667	0	32976	
1668	0	33048	
1669	0	33116	
1670	0	33004	
1671	0	32604	
1672	0	32096	
1673	0	31560	
1674	0	31136	
1675	0	31064	
1676	0	31240	
1677	0	31672	
1678	0	32152	
1679	0	32560	
1680	0	32880	
1681	0	33072	
1682	0	32988	
1683	0	32824	
1684	0	32664	
1685	0	32668	
1686	0	32840	
1687	0	33040	
1688	0	33168	
1689	0	33170	
1690	0	32992	
1691	0	32680	
1692	0	32328	
1693	0	31812	
1694	0	31356	
1695	0	31212	
1696	0	31440	
1697	0	31906	
1698	0	32440	
1699	0	32872	
1700	0	33164	
1701	0	33336	
1702	0	33336	
1703	0	33120	
1704	0	32840	
1705	0	32820	
1706	0	32920	
1707	0	33148	
1708	0	33368	
1709	0	33468	
1710	0	33284	
1711	0	32948	
1712	0	32412	
1713	0	31768	
1714	0	31328	
1715	0	31204	
1716	0	31372	
1717	0	31820	
1718	0	32344	
1719	0	32812	
1720	0	33184	
1721	0	33316	
1722	0	33272	
1723	0	33106	
1724	0	32932	
1725	0	32970	
1726	0	33128	
1727	0	33260	
1728	0	33332	
1729	0	33312	
1730	0	33120	
1731	0	32836	
1732	0	32420	
1733	0	31940	
1734	0	31528	
1735	0	31420	
1736	0	31652	
1737	0	32072	
1738	0	32532	
1739	0	32940	
1740	0	33240	
1741	0	33320	
1742	0	33256	
1743	0	33124	
1744	0	32948	
1745	0	32912	
1746	0	33052	
1747	0	33252	
1748	0	33384	
1749	0	33368	
1750	0	33160	
1751	0	32780	
1752	0	32388	
1753	0	31896	
1754	0	31452	
1755	0	31368	
1756	0	31616	
1757	0	32056	
1758	0	32544	
1759	0	32968	
1760	0	33316	
1761	0	33500	
1762	0	33484	
1763	0	33313	
1764	0	32996	
1765	0	32948	
1766	0	33136	
1767	0	33368	
1768	0	33472	
1769	0	33424	
1770	0	33300	
1771	0	32968	
1772	0	32432	
1773	0	31832	
1774	0	31384	
1775	0	31380	
1776	0	31648	
1777	0	32056	
1778	0	32468	
1779	0	32920	
1780	0	33356	
1781	0	33496	
1782	0	33484	
1783	0	33322	
1784	0	33088	
1785	0	33000	
1786	0	33120	
1787	0	33304	
1788	0	33448	
1789	0	33472	
1790	0	33360	
1791	0	33040	
1792	0	32568	
1793	0	32032	
1794	0	31552	
1795	0	31408	
1796	0	31592	
1797	0	32048	
1798	0	32516	
1799	0	32896	
1800	0	33292	
1801	0	33456	
1802	0	33476	
1803	0	33360	
1804	0	33104	
1805	0	33032	
1806	0	33136	
1807	0	33304	
1808	0	33460	
1809	0	33500	
1810	0	33320	
1811	0	33012	
1812	0	32580	
1813	0	32072	
1814	0	31644	
1815	0	31512	
1816	0	31768	
1817	0	32224	
1818	0	32672	
1819	0	33092	
1820	0	33460	
1821	0	33656	
1822	0	33572	
1823	0	33272	
1824	0	32986	
1825	0	32876	
1826	0	33016	
1827	0	33276	
1828	0	33440	
1829	0	33496	
1830	0	33392	
1831	0	33168	
1832	0	32696	
1833	0	32118	
1834	0	31660	
1835	0	31552	
1836	0	31812	
1837	0	32176	
1838	0	32632	
1839	0	33112	
1840	0	33476	
1841	0	33668	
1842	0	33580	
1843	0	33336	
1844	0	33096	
1845	0	33024	
1846	0	33204	
1847	0	33488	
1848	0	33690	
1849	0	33708	
1850	0	33592	
1851	0	33176	
1852	0	32568	
1853	0	32000	
1854	0	31588	
1855	0	31540	
1856	0	31848	
1857	0	32184	
1858	0	32532	
1859	0	32904	
1860	0	33272	
1861	0	33436	
1862	0	33448	
1863	0	33260	
1864	0	33072	
1865	0	33076	
1866	0	33212	
1867	0	33380	
1868	0	33552	
1869	0	33562	
1870	0	33348	
1871	0	33012	
1872	0	32520	
1873	0	32024	
1874	0	31572	
1875	0	31468	
1876	0	31680	
1877	0	32124	
1878	0	32620	
1879	0	33064	
1880	0	33488	
1881	0	33610	
1882	0	33504	
1883	0	33268	
1884	0	33004	
1885	0	32936	
1886	0	33132	
1887	0	33344	
1888	0	33500	
1889	0	33428	
1890	0	33288	
1891	0	33032	
1892	0	32632	
1893	0	32140	
1894	0	31696	
1895	0	31576	
1896	0	31844	
1897	0	32360	
1898	0	32800	
1899	0	33112	
1900	0	33320	
1901	0	33384	
1902	0	33380	
1903	0	33272	
1904	0	33064	
1905	0	33056	
1906	0	33184	
1907	0	33324	
1908	0	33440	
1909	0	33504	
1910	0	33376	
1911	0	33040	
1912	0	32632	
1913	0	32122	
1914	0	31704	
1915	0	31578	
1916	0	31824	
1917	0	32232	
1918	0	32592	
1919	0	33060	
1920	0	33488	
1921	0	33780	
1922	0	33872	
1923	0	33760	
1924	0	33520	
1925	0	33456	
1926	0	33640	
1927	0	33940	
1928	0	34148	
1929	0	34140	
1930	0	33908	
1931	0	33576	
1932	0	33172	
1933	0	32728	
1934	0	32328	
1935	0	32216	
1936	0	32544	
1937	0	32996	
1938	0	33384	
1939	0	33784	
1940	0	34184	
1941	0	34428	
1942	0	34404	
1943	0	34136	
1944	0	33800	
1945	0	33720	
1946	0	33860	
1947	0	34012	
1948	0	34162	
1949	0	34160	
1950	0	34024	
1951	0	33724	
1952	0	33352	
1953	0	32840	
1954	0	32314	
1955	0	32188	
1956	0	32448	
1957	0	32952	
1958	0	33512	
1959	0	34004	
1960	0	34328	
1961	0	34448	
1962	0	34408	
1963	0	34244	
1964	0	34044	
1965	0	34048	
1966	0	34192	
1967	0	34444	
1968	0	34644	
1969	0	34668	
1970	0	34536	
1971	0	34154	
1972	0	33672	
1973	0	33176	
1974	0	32696	
1975	0	32488	
1976	0	32696	
1977	0	33160	
1978	0	33644	
1979	0	34016	
1980	0	34200	
1981	0	34268	
1982	0	34152	
1983	0	33904	
1984	0	33660	
1985	0	33580	
1986	0	33616	
1987	0	33700	
1988	0	33780	
1989	0	33696	
1990	0	33572	
1991	0	33276	
1992	0	32808	
1993	0	32296	
1994	0	31892	
1995	0	31640	
1996	0	31684	
1997	0	32000	
1998	0	32388	
1999	0	32828	
2000	0	33124	
2001	0	33248	
2002	0	33300	
2003	0	33128	
2004	0	32708	
2005	0	32544	
2006	0	32680	
2007	0	32900	
2008	0	33128	
2009	0	33232	
2010	0	33012	
2011	0	32584	
2012	0	32132	
2013	0	31640	
2014	0	31196	
2015	0	31032	
2016	0	31272	
2017	0	31720	
2018	0	32132	
2019	0	32516	
2020	0	32836	
2021	0	33012	
2022	0	33014	
2023	0	32788	
2024	0	32496	
2025	0	32444	
2026	0	32584	
2027	0	32768	
2028	0	33000	
2029	0	33072	
2030	0	32832	
2031	0	32496	
2032	0	32016	
2033	0	31428	
2034	0	30952	
2035	0	30872	
2036	0	31180	
2037	0	31636	
2038	0	32072	
2039	0	32404	
2040	0	32796	
2041	0	33020	
2042	0	33096	
2043	0	32960	
2044	0	32736	
2045	0	32692	
2046	0	32960	
2047	0	33248	
2048	0	33408	
2049	0	33372	
2050	0	33264	
2051	0	32960	
2052	0	32468	
2053	0	31932	
2054	0	31492	
2055	0	31424	
2056	0	31804	
2057	0	32444	
2058	0	33088	
2059	0	33632	
2060	0	34108	
2061	0	34348	
2062	0	34368	
2063	0	34388	
2064	0	34496	
2065	0	34818	
2066	0	35324	
2067	0	35860	
2068	0	36336	
2069	0	36568	
2070	0	36572	
2071	0	36484	
2072	0	36308	
2073	0	36028	
2074	0	35736	
2075	0	35768	
2076	0	36316	
2077	0	37200	
2078	0	38232	
2079	0	39380	
2080	0	40580	
2081	0	41536	
2082	0	42132	
2083	0	42156	
2084	0	41920	
2085	0	41640	
2086	0	41456	
2087	0	41232	
2088	0	40740	
2089	0	39936	
2090	0	39112	
2091	0	38348	
2092	0	37680	
2093	0	36980	
2094	0	36200	
2095	0	35664	
2096	0	35440	
2097	0	35544	
2098	0	35760	
2099	0	36098	
2100	0	36352	
2101	0	36376	
2102	0	36156	
2103	0	35756	
2104	0	35228	
2105	0	34872	
2106	0	34788	
2107	0	34720	
2108	0	34560	
2109	0	34288	
2110	0	33792	
2111	0	33140	
2112	0	32412	
2113	0	31720	
2114	0	31036	
2115	0	30772	
2116	0	30938	
2117	0	31248	
2118	0	31660	
2119	0	32074	
2120	0	32312	
2121	0	32368	
2122	0	32368	
2123	0	32202	
2124	0	31936	
2125	0	31800	
2126	0	31864	
2127	0	32032	
2128	0	32148	
2129	0	32172	
2130	0	31992	
2131	0	31624	
2132	0	31168	
2133	0	30644	
2134	0	30144	
2135	0	30008	
2136	0	30320	
2137	0	30892	
2138	0	31416	
2139	0	31824	
2140	0	32148	
2141	0	32240	
2142	0	32132	
2143	0	31938	
2144	0	31684	
2145	0	31608	
2146	0	31792	
2147	0	32032	
2148	0	32180	
2149	0	32192	
2150	0	31978	
2151	0	31592	
2152	0	31164	
2153	0	30656	
2154	0	30202	
2155	0	30084	
2156	0	30304	
2157	0	30740	
2158	0	31252	
2159	0	31752	
2160	0	32096	
2161	0	32252	
2162	0	32236	
2163	0	32004	
2164	0	31672	
2165	0	31600	
2166	0	31842	
2167	0	32104	
2168	0	32280	
2169	0	32328	
2170	0	32156	
2171	0	31792	
2172	0	31376	
2173	0	30896	
2174	0	30412	
2175	0	30276	
2176	0	30528	
2177	0	31016	
2178	0	31512	
2179	0	31944	
2180	0	32304	
2181	0	32560	
2182	0	32574	
2183	0	32394	
2184	0	32156	
2185	0	32136	
2186	0	32300	
2187	0	32472	
2188	0	32672	
2189	0	32776	
2190	0	32576	
2191	0	32144	
2192	0	31624	
2193	0	31056	
2194	0	30576	
2195	0	30488	
2196	0	30792	
2197	0	31324	
2198	0	31856	
2199	0	32288	
2200	0	32576	
2201	0	32704	
2202	0	32744	
2203	0	32528	
2204	0	32200	
2205	0	32162	
2206	0	32336	
2207	0	32592	
2208	0	32792	
2209	0	32852	
2210	0	32732	
2211	0	32404	
2212	0	31972	
2213	0	31440	
2214	0	30936	
2215	0	30836	
2216	0	31076	
2217	0	31616	
2218	0	32132	
2219	0	32552	
2220	0	32808	
2221	0	33000	
2222	0	32972	
2223	0	32784	
2224	0	32480	
2225	0	32424	
2226	0	32652	
2227	0	32952	
2228	0	33133	
2229	0	33152	
2230	0	32996	
2231	0	32712	
2232	0	32212	
2233	0	31620	
2234	0	31124	
2235	0	31096	
2236	0	31424	
2237	0	31900	
2238	0	32408	
2239	0	32874	
2240	0	33184	
2241	0	33336	
2242	0	33340	
2243	0	33180	
2244	0	32952	
2245	0	32968	
2246	0	33220	
2247	0	33448	
2248	0	33524	
2249	0	33496	
2250	0	33320	
2251	0	32944	
2252	0	32488	
2253	0	32028	
2254	0	31576	
2255	0	31448	
2256	0	31712	
2257	0	32220	
2258	0	32720	
2259	0	33084	
2260	0	33496	
2261	0	33732	
2262	0	33732	
2263	0	33560	
2264	0	33296	
2265	0	33174	
2266	0	33328	
2267	0	33568	
2268	0	33736	
2269	0	33800	
2270	0	33700	
2271	0	33408	
2272	0	33064	
2273	0	32548	
2274	0	32048	
2275	0	31880	
2276	0	32112	
2277	0	32596	
2278	0	33132	
2279	0	33668	
2280	0	34016	
2281	0	34188	
2282	0	34212	
2283	0	34032	
2284	0	33792	
2285	0	33752	
2286	0	33952	
2287	0	34108	
2288	0	34244	
2289	0	34248	
2290	0	34092	
2291	0	33828	
2292	0	33392	
2293	0	32960	
2294	0	32620	
2295	0	32560	
2296	0	32788	
2297	0	33208	
2298	0	33776	
2299	0	34412	
2300	0	34904	
2301	0	35092	
2302	0	35060	
2303	0	34888	
2304	0	34592	
2305	0	34512	
2306	0	34648	
2307	0	34904	
2308	0	35076	
2309	0	35096	
2310	0	34896	
2311	0	34546	
2312	0	34104	
2313	0	33608	
2314	0	33136	
2315	0	33080	
2316	0	33368	
2317	0	33804	
2318	0	34324	
2319	0	34820	
2320	0	35248	
2321	0	35468	
2322	0	35540	
2323	0	35444	
2324	0	35188	
2325	0	35140	
2326	0	35297	
2327	0	35476	
2328	0	35576	
2329	0	35508	
2330	0	35340	
2331	0	35080	
2332	0	34704	
2333	0	34208	
2334	0	33736	
2335	0	33612	
2336	0	33852	
2337	0	34228	
2338	0	34688	
2339	0	35140	
2340	0	35464	
2341	0	35652	
2342	0	35676	
2343	0	35532	
2344	0	35322	
2345	0	35192	
2346	0	35212	
2347	0	35400	
2348	0	35528	
2349	0	35520	
2350	0	35376	
2351	0	35012	
2352	0	34500	
2353	0	33916	
2354	0	33332	
2355	0	33100	
2356	0	33344	
2357	0	33760	
2358	0	34176	
2359	0	34572	
2360	0	34900	
2361	0	34984	
2362	0	34872	
2363	0	34640	
2364	0	34312	
2365	0	34136	
2366	0	34188	
2367	0	34336	
2368	0	34392	
2369	0	34252	
2370	0	33904	
2371	0	33496	
2372	0	33004	
2373	0	32352	
2374	0	31788	
2375	0	31536	
2376	0	31692	
2377	0	32148	
2378	0	32624	
2379	0	32944	
2380	0	33192	
2381	0	33224	
2382	0	33144	
2383	0	32952	
2384	0	32612	
2385	0	32380	
2386	0	32412	
2387	0	32548	
2388	0	32648	
2389	0	32608	
2390	0	32312	
2391	0	31848	
2392	0	31352	
2393	0	30808	
2394	0	30304	
2395	0	30048	
2396	0	30180	
2397	0	30664	
2398	0	31188	
2399	0	31600	
2400	0	31912	
2401	0	32044	
2402	0	32040	
2403	0	31834	
2404	0	31472	
2405	0	31252	
2406	0	31352	
2407	0	31624	
2408	0	31800	
2409	0	31808	
2410	0	31632	
2411	0	31180	
2412	0	30700	
2413	0	30304	
2414	0	29776	
2415	0	29536	
2416	0	29728	
2417	0	30168	
2418	0	30644	
2419	0	31084	
2420	0	31532	
2421	0	31728	
2422	0	31600	
2423	0	31290	
2424	0	31000	
2425	0	30872	
2426	0	31020	
2427	0	31312	
2428	0	31544	
2429	0	31656	
2430	0	31520	
2431	0	31168	
2432	0	30640	
2433	0	30108	
2434	0	29658	
2435	0	29488	
2436	0	29704	
2437	0	30140	
2438	0	30696	
2439	0	31146	
2440	0	31488	
2441	0	31736	
2442	0	31724	
2443	0	31476	
2444	0	31256	
2445	0	31208	
2446	0	31390	
2447	0	31632	
2448	0	31852	
2449	0	31952	
2450	0	31792	
2451	0	31424	
2452	0	30938	
2453	0	30408	
2454	0	29940	
2455	0	29772	
2456	0	30024	
2457	0	30544	
2458	0	31032	
2459	0	31448	
2460	0	31792	
2461	0	32044	
2462	0	31996	
2463	0	31792	
2464	0	31496	
2465	0	31352	
2466	0	31500	
2467	0	31692	
2468	0	31856	
2469	0	31872	
2470	0	31720	
2471	0	31410	
2472	0	31000	
2473	0	30504	
2474	0	30002	
2475	0	29828	
2476	0	30032	
2477	0	30564	
2478	0	31168	
2479	0	31748	
2480	0	32136	
2481	0	32352	
2482	0	32344	
2483	0	32124	
2484	0	31832	
2485	0	31840	
2486	0	32088	
2487	0	32308	
2488	0	32428	
2489	0	32432	
2490	0	32248	
2491	0	31892	
2492	0	31396	
2493	0	30796	
2494	0	30252	
2495	0	30124	
2496	0	30432	
2497	0	30896	
2498	0	31456	
2499	0	31964	
2500	0	32376	
2501	0	32612	
2502	0	32652	
2503	0	32516	
2504	0	32224	
2505	0	32128	
2506	0	32304	
2507	0	32552	
2508	0	32608	
2509	0	32624	
2510	0	32414	
2511	0	32024	
2512	0	31625	
2513	0	31104	
2514	0	30560	
2515	0	30428	
2516	0	30688	
2517	0	31142	
2518	0	31728	
2519	0	32252	
2520	0	32616	
2521	0	32806	
2522	0	32800	
2523	0	32704	
2524	0	32424	
2525	0	32260	
2526	0	32416	
2527	0	32628	
2528	0	32704	
2529	0	32692	
2530	0	32592	
2531	0	32280	
2532	0	31888	
2533	0	31392	
2534	0	30892	
2535	0	30760	
2536	0	30996	
2537	0	31460	
2538	0	31948	
2539	0	32368	
2540	0	32728	
2541	0	32888	
2542	0	32904	
2543	0	32748	
2544	0	32500	
2545	0	32440	
2546	0	32596	
2547	0	32776	
2548	0	32900	
2549	0	32865	
2550	0	32720	
2551	0	32532	
2552	0	32144	
2553	0	31668	
2554	0	31160	
2555	0	30956	
2556	0	31104	
2557	0	31552	
2558	0	32056	
2559	0	32464	
2560	0	32816	
2561	0	33056	
2562	0	33060	
2563	0	32848	
2564	0	32588	
2565	0	32476	
2566	0	32670	
2567	0	32928	
2568	0	33104	
2569	0	33060	
2570	0	32900	
2571	0	32552	
2572	0	32112	
2573	0	31620	
2574	0	31136	
2575	0	30892	
2576	0	31072	
2577	0	31564	
2578	0	32076	
2579	0	32496	
2580	0	32836	
2581	0	33020	
2582	0	33024	
2583	0	32830	
2584	0	32572	
2585	0	32448	
2586	0	32488	
2587	0	32732	
2588	0	32952	
2589	0	32968	
2590	0	32740	
2591	0	32412	
2592	0	32040	
2593	0	31676	
2594	0	31192	
2595	0	30996	
2596	0	31188	
2597	0	31644	
2598	0	32184	
2599	0	32632	
2600	0	32960	
2601	0	33104	
2602	0	33036	
2603	0	32908	
2604	0	32770	
2605	0	32666	
2606	0	32700	
2607	0	32920	
2608	0	33148	
2609	0	33148	
2610	0	32946	
2611	0	32648	
2612	0	32228	
2613	0	31708	
2614	0	31196	
2615	0	31028	
2616	0	31258	
2617	0	31704	
2618	0	32208	
2619	0	32658	
2620	0	32972	
2621	0	33104	
2622	0	33056	
2623	0	32868	
2624	0	32600	
2625	0	32576	
2626	0	32796	
2627	0	33072	
2628	0	33188	
2629	0	33164	
2630	0	33044	
2631	0	32712	
2632	0	32220	
2633	0	31672	
2634	0	31176	
2635	0	31052	
2636	0	31304	
2637	0	31750	
2638	0	32328	
2639	0	32768	
2640	0	33116	
2641	0	33316	
2642	0	33320	
2643	0	33074	
2644	0	32818	
2645	0	32752	
2646	0	32892	
2647	0	33068	
2648	0	33176	
2649	0	33156	
2650	0	33024	
2651	0	32688	
2652	0	32250	
2653	0	31756	
2654	0	31276	
2655	0	31064	
2656	0	31280	
2657	0	31768	
2658	0	32368	
2659	0	32833	
2660	0	33128	
2661	0	33240	
2662	0	33232	
2663	0	33048	
2664	0	32896	
2665	0	32868	
2666	0	32968	
2667	0	33128	
2668	0	33288	
2669	0	33264	
2670	0	33088	
2671	0	32760	
2672	0	32262	
2673	0	31680	
2674	0	31288	
2675	0	31156	
2676	0	31328	
2677	0	31750	
2678	0	32252	
2679	0	32776	
2680	0	33176	
2681	0	33404	
2682	0	33500	
2683	0	33328	
2684	0	33000	
2685	0	32860	
2686	0	32972	
2687	0	33194	
2688	0	33450	
2689	0	33480	
2690	0	33216	
2691	0	32820	
2692	0	32364	
2693	0	31844	
2694	0	31418	
2695	0	31272	
2696	0	31528	
2697	0	31932	
2698	0	32368	
2699	0	32808	
2700	0	33172	
2701	0	33340	
2702	0	33356	
2703	0	33160	
2704	0	32892	
2705	0	32856	
2706	0	32960	
2707	0	33040	
2708	0	33154	
2709	0	33236	
2710	0	33112	
2711	0	32800	
2712	0	32364	
2713	0	31884	
2714	0	31460	
2715	0	31318	
2716	0	31532	
2717	0	31976	
2718	0	32480	
2719	0	32976	
2720	0	33320	
2721	0	33536	
2722	0	33528	
2723	0	33348	
2724	0	33016	
2725	0	32856	
2726	0	33000	
2727	0	33228	
2728	0	33316	
2729	0	33344	
2730	0	33212	
2731	0	32920	
2732	0	32544	
2733	0	32104	
2734	0	31596	
2735	0	31408	
2736	0	31676	
2737	0	32140	
2738	0	32608	
2739	0	33018	
2740	0	33336	
2741	0	33524	
2742	0	33510	
2743	0	33312	
2744	0	33090	
2745	0	33072	
2746	0	33212	
2747	0	33396	
2748	0	33480	
2749	0	33512	
2750	0	33348	
2751	0	33076	
2752	0	32632	
2753	0	32084	
2754	0	31576	
2755	0	31380	
2756	0	31560	
2757	0	31996	
2758	0	32492	
2759	0	32858	
2760	0	33160	
2761	0	33320	
2762	0	33416	
2763	0	33324	
2764	0	33108	
2765	0	33004	
2766	0	33116	
2767	0	33336	
2768	0	33536	
2769	0	33616	
2770	0	33518	
2771	0	33248	
2772	0	32860	
2773	0	32268	
2774	0	31640	
2775	0	31404	
2776	0	31560	
2777	0	31984	
2778	0	32514	
2779	0	32948	
2780	0	33304	
2781	0	33500	
2782	0	33552	
2783	0	33456	
2784	0	33232	
2785	0	33136	
2786	0	33276	
2787	0	33504	
2788	0	33668	
2789	0	33704	
2790	0	33576	
2791	0	33248	
2792	0	32752	
2793	0	32176	
2794	0	31668	
2795	0	31452	
2796	0	31628	
2797	0	32064	
2798	0	32600	
2799	0	33116	
2800	0	33452	
2801	0	33628	
2802	0	33628	
2803	0	33460	
2804	0	33162	
2805	0	33040	
2806	0	33200	
2807	0	33332	
2808	0	33416	
2809	0	33498	
2810	0	33460	
2811	0	33240	
2812	0	32796	
2813	0	32176	
2814	0	31548	
2815	0	31320	
2816	0	31512	
2817	0	32016	
2818	0	32544	
2819	0	32988	
2820	0	33396	
2821	0	33644	
2822	0	33616	
2823	0	33480	
2824	0	33228	
2825	0	33112	
2826	0	33216	
2827	0	33424	
2828	0	33596	
2829	0	33704	
2830	0	33584	
2831	0	33284	
2832	0	32896	
2833	0	32372	
2834	0	31820	
2835	0	31544	
2836	0	31764	
2837	0	32176	
2838	0	32684	
2839	0	33162	
2840	0	33576	
2841	0	33728	
2842	0	33656	
2843	0	33504	
2844	0	33268	
2845	0	33160	
2846	0	33352	
2847	0	33600	
2848	0	33716	
2849	0	33720	
2850	0	33588	
2851	0	33240	
2852	0	32772	
2853	0	32264	
2854	0	31744	
2855	0	31592	
2856	0	31808	
2857	0	32232	
2858	0	32656	
2859	0	33132	
2860	0	33576	
2861	0	33740	
2862	0	33684	
2863	0	33464	
2864	0	33176	
2865	0	33104	
2866	0	33220	
2867	0	33376	
2868	0	33552	
2869	0	33640	
2870	0	33556	
2871	0	33304	
2872	0	32904	
2873	0	32360	
2874	0	31820	
2875	0	31648	
2876	0	31840	
2877	0	32288	
2878	0	32844	
2879	0	33344	
2880	0	33610	
2881	0	33640	
2882	0	33582	
2883	0	33428	
2884	0	33200	
2885	0	33160	
2886	0	33272	
2887	0	33474	
2888	0	33708	
2889	0	33714	
2890	0	33532	
2891	0	33200	
2892	0	32772	
2893	0	32240	
2894	0	31728	
2895	0	31532	
2896	0	31746	
2897	0	32288	
2898	0	32832	
2899	0	33328	
2900	0	33700	
2901	0	33848	
2902	0	33848	
2903	0	33760	
2904	0	33512	
2905	0	33464	
2906	0	33580	
2907	0	33780	
2908	0	33972	
2909	0	34040	
2910	0	33844	
2911	0	33432	
2912	0	33068	
2913	0	32668	
2914	0	32196	
2915	0	32186	
2916	0	32496	
2917	0	32960	
2918	0	33436	
2919	0	33824	
2920	0	34236	
2921	0	34432	
2922	0	34328	
2923	0	34112	
2924	0	33832	
2925	0	33644	
2926	0	33776	
2927	0	34032	
2928	0	34240	
2929	0	34272	
2930	0	34196	
2931	0	33932	
2932	0	33440	
2933	0	32856	
2934	0	32304	
2935	0	32080	
2936	0	32272	
2937	0	32796	
2938	0	33388	
2939	0	33960	
2940	0	34284	
2941	0	34384	
2942	0	34364	
2943	0	34312	
2944	0	34120	
2945	0	34064	
2946	0	34224	
2947	0	34360	
2948	0	34440	
2949	0	34528	
2950	0	34492	
2951	0	34216	
2952	0	33812	
2953	0	33300	
2954	0	32760	
2955	0	32484	
2956	0	32612	
2957	0	33036	
2958	0	33604	
2959	0	34128	
2960	0	34456	
2961	0	34520	
2962	0	34396	
2963	0	34088	
2964	0	33716	
2965	0	33488	
2966	0	33522	
2967	0	33706	
2968	0	33832	
2969	0	33856	
2970	0	33744	
2971	0	33488	
2972	0	33096	
2973	0	32560	
2974	0	31964	
2975	0	31672	
2976	0	31712	
2977	0	32076	
2978	0	32500	
2979	0	32832	
2980	0	33092	
2981	0	33344	
2982	0	33320	
2983	0	33108	
2984	0	32776	
2985	0	32564	
2986	0	32632	
2987	0	32852	
2988	0	32976	
2989	0	33008	
2990	0	32968	
2991	0	32640	
2992	0	32212	
2993	0	31738	
2994	0	31296	
2995	0	31052	
2996	0	31164	
2997	0	31552	
2998	0	32112	
2999	0	32616	
3000	0	33088	
3001	0	33248	
3002	0	33184	
3003	0	32976	
3004	0	32692	
3005	0	32608	
3006	0	32712	
3007	0	32856	
3008	0	32996	
3009	0	33064	
3010	0	32980	
3011	0	32596	
3012	0	32160	
3013	0	31648	
3014	0	31148	
3015	0	31064	
3016	0	31266	
3017	0	31612	
3018	0	32052	
3019	0	32472	
3020	0	32916	
3021	0	33180	
3022	0	33228	
3023	0	33104	
3024	0	32832	
3025	0	32664	
3026	0	32780	
3027	0	33032	
3028	0	33196	
3029	0	33212	
3030	0	33124	
3031	0	32872	
3032	0	32490	
3033	0	31962	
3034	0	31444	
3035	0	31328	
3036	0	31664	
3037	0	32208	
3038	0	32800	
3039	0	33304	
3040	0	33760	
3041	0	34004	
3042	0	34100	
3043	0	34112	
3044	0	34040	
3045	0	34112	
3046	0	34516	
3047	0	35020	
3048	0	35360	
3049	0	35620	
3050	0	35848	
3051	0	35864	
3052	0	35868	
3053	0	35772	
3054	0	35648	
3055	0	35736	
3056	0	36200	
3057	0	36948	
3058	0	37960	
3059	0	39084	
3060	0	40164	
3061	0	41012	
3062	0	41624	
3063	0	41896	
3064	0	41804	
3065	0	41476	
3066	0	41196	
3067	0	40840	
3068	0	40200	
3069	0	39400	
3070	0	38680	
3071	0	37976	
3072	0	37196	
3073	0	36328	
3074	0	35540	
3075	0	35080	
3076	0	34992	
3077	0	35152	
3078	0	35412	
3079	0	35692	
3080	0	35860	
3081	0	35812	
3082	0	35738	
3083	0	35552	
3084	0	35076	
3085	0	34624	
3086	0	34496	
3087	0	34536	
3088	0	34476	
3089	0	34304	
3090	0	33972	
3091	0	33428	
3092	0	32658	
3093	0	31880	
3094	0	31208	
3095	0	30888	
3096	0	30996	
3097	0	31392	
3098	0	31836	
3099	0	32154	
3100	0	32480	
3101	0	32668	
3102	0	32732	
3103	0	32528	
3104	0	32072	
3105	0	31828	
3106	0	31940	
3107	0	32160	
3108	0	32260	
3109	0	32272	
3110	0	32172	
3111	0	31860	
3112	0	31464	
3113	0	30916	
3114	0	30404	
3115	0	30216	
3116	0	30404	
3117	0	30830	
3118	0	31356	
3119	0	31796	
3120	0	32208	
3121	0	32440	
3122	0	32464	
3123	0	32328	
3124	0	32000	
3125	0	31812	
3126	0	31968	
3127	0	32184	
3128	0	32350	
3129	0	32324	
3130	0	32216	
3131	0	31944	
3132	0	31544	
3133	0	31096	
3134	0	30556	
3135	0	30204	
3136	0	30352	
3137	0	30864	
3138	0	31404	
3139	0	31920	
3140	0	32336	
3141	0	32512	
3142	0	32512	
3143	0	32328	
3144	0	32024	
3145	0	31868	
3146	0	32016	
3147	0	32320	
3148	0	32560	
3149	0	32592	
3150	0	32464	
3151	0	32164	
3152	0	31732	
3153	0	31244	
3154	0	30708	
3155	0	30424	
3156	0	30596	
3157	0	30994	
3158	0	31384	
3159	0	31864	
3160	0	32336	
3161	0	32618	
3162	0	32660	
3163	0	32512	
3164	0	32180	
3165	0	32052	
3166	0	32276	
3167	0	32644	
3168	0	32772	
3169	0	32712	
3170	0	32522	
3171	0	32168	
3172	0	31852	
3173	0	31468	
3174	0	31000	
3175	0	30756	
3176	0	30896	
3177	0	31280	
3178	0	31748	
3179	0	32172	
3180	0	32640	
3181	0	32968	
3182	0	33084	
3183	0	32944	
3184	0	32640	
3185	0	32496	
3186	0	32608	
3187	0	32848	
3188	0	33004	
3189	0	32988	
3190	0	32808	
3191	0	32436	
3192	0	32056	
3193	0	31656	
3194	0	31172	
3195	0	30936	
3196	0	31074	
3197	0	31520	
3198	0	32052	
3199	0	32444	
3200	0	32856	
3201	0	33120	
3202	0	33156	
3203	0	33048	
3204	0	32764	
3205	0	32564	
3206	0	32696	
3207	0	32952	
3208	0	33072	
3209	0	33080	
3210	0	32980	
3211	0	32744	
3212	0	32340	
3213	0	31836	
3214	0	31368	
3215	0	31232	
3216	0	31436	
3217	0	31876	
3218	0	32336	
3219	0	32754	
3220	0	33076	
3221	0	33348	
3222	0	33450	
3223	0	33386	
3224	0	33168	
3225	0	33040	
3226	0	33128	
3227	0	33336	
3228	0	33508	
3229	0	33488	
3230	0	33402	
3231	0	33160	
3232	0	32748	
3233	0	32256	
3234	0	31760	
3235	0	31560	
3236	0	31748	
3237	0	32138	
3238	0	32568	
3239	0	33016	
3240	0	33456	
3241	0	33692	
3242	0	33668	
3243	0	33488	
3244	0	33192	
3245	0	33076	
3246	0	33240	
3247	0	33560	
3248	0	33732	
3249	0	33788	
3250	0	33716	
3251	0	33568	
3252	0	33256	
3253	0	32724	
3254	0	32200	
3255	0	32028	
3256	0	32168	
3257	0	32660	
3258	0	33240	
3259	0	33732	
3260	0	34120	
3261	0	34352	
3262	0	34384	
3263	0	34254	
3264	0	34016	
3265	0	33864	
3266	0	33962	
3267	0	34188	
3268	0	34344	
3269	0	34416	
3270	0	34276	
3271	0	33948	
3272	0	33572	
3273	0	33109	
3274	0	32632	
3275	0	32416	
3276	0	32632	
3277	0	33136	
3278	0	33720	
3279	0	34196	
3280	0	34520	
3281	0	34740	
3282	0	34768	
3283	0	34648	
3284	0	34400	
3285	0	34196	
3286	0	34316	
3287	0	34608	
3288	0	34820	
3289	0	34952	
3290	0	34900	
3291	0	34616	
3292	0	34200	
3293	0	33696	
3294	0	33136	
3295	0	32976	
3296	0	33208	
3297	0	33740	
3298	0	34400	
3299	0	34892	
3300	0	35212	
3301	0	35404	
3302	0	35540	
3303	0	35420	
3304	0	35144	
3305	0	34968	
3306	0	34960	
3307	0	35128	
3308	0	35297	
3309	0	35404	
3310	0	35288	
3311	0	35012	
3312	0	34560	
3313	0	34080	
3314	0	33608	
3315	0	33408	
3316	0	33628	
3317	0	34016	
3318	0	34472	
3319	0	34896	
3320	0	35248	
3321	0	35516	
3322	0	35568	
3323	0	35428	
3324	0	35124	
3325	0	34944	
3326	0	35008	
3327	0	35204	
3328	0	35340	
3329	0	35324	
3330	0	35228	
3331	0	34932	
3332	0	34472	
3333	0	33876	
3334	0	33344	
3335	0	33052	
3336	0	33168	
3337	0	33616	
3338	0	34072	
3339	0	34464	
3340	0	34760	
3341	0	34924	
3342	0	34856	
3343	0	34600	
3344	0	34232	
3345	0	34020	
3346	0	34104	
3347	0	34220	
3348	0	34280	
3349	0	34264	
3350	0	34092	
3351	0	33652	
3352	0	33072	
3353	0	32501	
3354	0	31920	
3355	0	31628	
3356	0	31788	
3357	0	32120	
3358	0	32496	
3359	0	32848	
3360	0	33148	
3361	0	33262	
3362	0	33202	
3363	0	32984	
3364	0	32620	
3365	0	32352	
3366	0	32292	
3367	0	32400	
3368	0	32552	
3369	0	32628	
3370	0	32528	
3371	0	32144	
3372	0	31666	
3373	0	31076	
3374	0	30516	
3375	0	30208	
3376	0	30332	
3377	0	30700	
3378	0	31216	
3379	0	31640	
3380	0	31932	
3381	0	32056	
3382	0	31992	
3383	0	31680	
3384	0	31340	
3385	0	31208	
3386	0	31304	
3387	0	31484	
3388	0	31632	
3389	0	31658	
3390	0	31564	
3391	0	31296	
3392	0	30936	
3393	0	30488	
3394	0	29912	
3395	0	29632	
3396	0	29780	
3397	0	30152	
3398	0	30628	
3399	0	31072	
3400	0	31376	
3401	0	31532	
3402	0	31536	
3403	0	31404	
3404	0	31128	
3405	0	31068	
3406	0	31192	
3407	0	31396	
3408	0	31520	
3409	0	31608	
3410	0	31496	
3411	0	31148	
3412	0	30732	
3413	0	30224	
3414	0	29688	
3415	0	29480	
3416	0	29676	
3417	0	30068	
3418	0	30488	
3419	0	30884	
3420	0	31232	
3421	0	31536	
3422	0	31686	
3423	0	31592	
3424	0	31356	
3425	0	31248	
3426	0	31340	
3427	0	31544	
3428	0	31660	
3429	0	31740	
3430	0	31628	
3431	0	31348	
3432	0	30928	
3433	0	30416	
3434	0	29956	
3435	0	29768	
3436	0	29924	
3437	0	30336	
3438	0	30882	
3439	0	31356	
3440	0	31704	
3441	0	31864	
3442	0	31960	
3443	0	31860	
3444	0	31536	
3445	0	31400	
3446	0	31500	
3447	0	31736	
3448	0	31960	
3449	0	32032	
3450	0	31912	
3451	0	31648	
3452	0	31192	
3453	0	30724	
3454	0	30244	
3455	0	30004	
3456	0	30176	
3457	0	30564	
3458	0	31000	
3459	0	31476	
3460	0	31920	
3461	0	32168	
3462	0	32304	
3463	0	32268	
3464	0	32000	
3465	0	31868	
3466	0	31996	
3467	0	32232	
3468	0	32376	
3469	0	32416	
3470	0	32362	
3471	0	32168	
3472	0	31768	
3473	0	31308	
3474	0	30732	
3475	0	30456	
3476	0	30640	
3477	0	31076	
3478	0	31600	
3479	0	32060	
3480	0	32344	
3481	0	32496	
3482	0	32544	
3483	0	32480	
3484	0	32208	
3485	0	32004	
3486	0	32132	
3487	0	32412	
3488	0	32540	
3489	0	32568	
3490	0	32512	
3491	0	32272	
3492	0	31848	
3493	0	31356	
3494	0	30752	
3495	0	30464	
3496	0	30592	
3497	0	31040	
3498	0	31600	
3499	0	32104	
3500	0	32496	
3501	0	32716	
3502	0	32772	
3503	0	32652	
3504	0	32420	
3505	0	32344	
3506	0	32488	
3507	0	32704	
3508	0	32820	
3509	0	32820	
3510	0	32628	
3511	0	32300	
3512	0	31908	
3513	0	31480	
3514	0	31036	
3515	0	30712	
3516	0	30764	
3517	0	31092	
3518	0	31598	
3519	0	32132	
3520	0	32588	
3521	0	32796	
3522	0	32862	
3523	0	32816	
3524	0	32620	
3525	0	32480	
3526	0	32574	
3527	0	32720	
3528	0	32776	
3529	0	32776	
3530	0	32672	
3531	0	32428	
3532	0	32040	
3533	0	31576	
3534	0	31072	
3535	0	30800	
3536	0	30912	
3537	0	31308	
3538	0	31748	
3539	0	32252	
3540	0	32708	
3541	0	32920	
3542	0	32898	
3543	0	32696	
3544	0	32436	
3545	0	32368	
3546	0	32532	
3547	0	32800	
3548	0	32944	
3549	0	32908	
3550	0	32760	
3551	0	32436	
3552	0	32008	
3553	0	31532	
3554	0	30996	
3555	0	30698	
3556	0	30812	
3557	0	31248	
3558	0	31828	
3559	0	32320	
3560	0	32728	
3561	0	32992	
3562	0	33104	
3563	0	33016	
3564	0	32752	
3565	0	32536	
3566	0	32576	
3567	0	32744	
3568	0	32922	
3569	0	32988	
3570	0	32888	
3571	0	32604	
3572	0	32200	
3573	0	31680	
3574	0	31136	
3575	0	30876	
3576	0	30964	
3577	0	31276	
3578	0	31748	
3579	0	32224	
3580	0	32512	
3581	0	32770	
3582	0	32952	
3583	0	32896	
3584	0	32584	
3585	0	32400	
3586	0	32500	
3587	0	32772	
3588	0	32992	
3589	0	33048	
3590	0	32852	
3591	0	32544	
3592	0	32152	
3593	0	31696	
3594	0	31172	
3595	0	30940	
3596	0	31064	
3597	0	31416	
3598	0	31884	
3599	0	32352	
3600	0	32740	
3601	0	32936	
3602	0	32968	
3603	0	32864	
3604	0	32648	
3605	0	32560	
3606	0	32692	
3607	0	32932	
3608	0	33088	
3609	0	33172	
3610	0	33024	
3611	0	32660	
3612	0	32220	
3613	0	31716	
3614	0	31196	
3615	0	30924	
3616	0	31066	
3617	0	31384	
3618	0	31852	
3619	0	32344	
3620	0	32764	
3621	0	32976	
3622	0	33096	
3623	0	32980	
3624	0	32648	
3625	0	32384	
3626	0	32540	
3627	0	32928	
3628	0	33128	
3629	0	33124	
3630	0	33024	
3631	0	32728	
3632	0	32300	
3633	0	31768	
3634	0	31228	
3635	0	30968	
3636	0	31082	
3637	0	31528	
3638	0	32040	
3639	0	32492	
3640	0	32868	
3641	0	33058	
3642	0	33092	
3643	0	33024	
3644	0	32808	
3645	0	32616	
3646	0	32676	
3647	0	32868	
3648	0	33072	
3649	0	33176	
3650	0	33100	
3651	0	32828	
3652	0	32468	
3653	0	31968	
3654	0	31484	
3655	0	31180	
3656	0	31220	
3657	0	31584	
3658	0	32092	
3659	0	32524	
3660	0	32880	
3661	0	33092	
3662	0	33160	
3663	0	33074	
3664	0	32896	
3665	0	32728	
3666	0	32768	
3667	0	32920	
3668	0	33072	
3669	0	33160	
3670	0	33060	
3671	0	32772	
3672	0	32360	
3673	0	31884	
3674	0	31416	
3675	0	31168	
3676	0	31256	
3677	0	31620	
3678	0	32116	
3679	0	32576	
3680	0	32948	
3681	0	33176	
3682	0	33208	
3683	0	33040	
3684	0	32762	
3685	0	32584	
3686	0	32668	
3687	0	32936	
3688	0	33176	
3689	0	33248	
3690	0	33116	
3691	0	32908	
3692	0	32560	
3693	0	32138	
3694	0	31668	
3695	0	31336	
3696	0	31380	
3697	0	31696	
3698	0	32192	
3699	0	32620	
3700	0	33064	
3701	0	33308	
3702	0	33368	
3703	0	33268	
3704	0	32992	
3705	0	32820	
3706	0	32924	
3707	0	33132	
3708	0	33276	
3709	0	33328	
3710	0	33228	
3711	0	32968	
3712	0	32576	
3713	0	32030	
3714	0	31500	
3715	0	31240	
3716	0	31368	
3717	0	31756	
3718	0	32296	
3719	0	32792	
3720	0	33192	
3721	0	33412	
3722	0	33396	
3723	0	33236	
3724	0	33012	
3725	0	32856	
3726	0	32920	
3727	0	33128	
3728	0	33320	
3729	0	33400	
3730	0	33352	
3731	0	33136	
3732	0	32732	
3733	0	32176	
3734	0	31632	
3735	0	31332	
3736	0	31424	
3737	0	31796	
3738	0	32324	
3739	0	32816	
3740	0	33188	
3741	0	33412	
3742	0	33532	
3743	0	33440	
3744	0	33184	
3745	0	33048	
3746	0	33120	
3747	0	33244	
3748	0	33364	
3749	0	33470	
3750	0	33424	
3751	0	33092	
3752	0	32640	
3753	0	32172	
3754	0	31640	
3755	0	31352	
3756	0	31424	
3757	0	31776	
3758	0	32316	
3759	0	32848	
3760	0	33280	
3761	0	33532	
3762	0	33576	
3763	0	33380	
3764	0	33076	
3765	0	32880	
3766	0	32936	
3767	0	33080	
3768	0	33232	
3769	0	33320	
3770	0	33288	
3771	0	33008	
3772	0	32608	
3773	0	32180	
3774	0	31668	
3775	0	31380	
3776	0	31500	
3777	0	31904	
3778	0	32444	
3779	0	32912	
3780	0	33288	
3781	0	33512	
3782	0	33564	
3783	0	33404	
3784	0	33056	
3785	0	32844	
3786	0	32972	
3787	0	33236	
3788	0	33480	
3789	0	33578	
3790	0	33528	
3791	0	33284	
3792	0	32804	
3793	0	32296	
3794	0	31776	
3795	0	31436	
3796	0	31488	
3797	0	31852	
3798	0	32388	
3799	0	32882	
3800	0	33288	
3801	0	33450	
3802	0	33528	
3803	0	33456	
3804	0	33200	
3805	0	33058	
3806	0	33172	
3807	0	33372	
3808	0	33560	
3809	0	33604	
3810	0	33536	
3811	0	33240	
3812	0	32784	
3813	0	32280	
3814	0	31768	
3815	0	31416	
3816	0	31464	
3817	0	31820	
3818	0	32318	
3819	0	32812	
3820	0	33288	
3821	0	33584	
3822	0	33668	
3823	0	33508	
3824	0	33160	
3825	0	32936	
3826	0	33008	
3827	0	33172	
3828	0	33392	
3829	0	33560	
3830	0	33496	
3831	0	33236	
3832	0	32858	
3833	0	32380	
3834	0	31884	
3835	0	31576	
3836	0	31700	
3837	0	32172	
3838	0	32770	
3839	0	33260	
3840	0	33676	
3841	0	33936	
3842	0	33964	
3843	0	33792	
3844	0	33484	
3845	0	33288	
3846	0	33368	
3847	0	33648	
3848	0	33816	
3849	0	33908	
3850	0	33976	
3851	0	33858	
3852	0	33528	
3853	0	33012	
3854	0	32432	
3855	0	32092	
3856	0	32194	
3857	0	32600	
3858	0	33144	
3859	0	33596	
3860	0	33948	
3861	0	34168	
3862	0	34288	
3863	0	34208	
3864	0	33968	
3865	0	33768	
3866	0	33824	
3867	0	34048	
3868	0	34320	
3869	0	34456	
3870	0	34404	
3871	0	34096	
3872	0	33672	
3873	0	33224	
3874	0	32710	
3875	0	32336	
3876	0	32412	
3877	0	32800	
3878	0	33288	
3879	0	33732	
3880	0	34132	
3881	0	34432	
3882	0	34464	
3883	0	34328	
3884	0	34116	
3885	0	34032	
3886	0	34240	
3887	0	34516	
3888	0	34666	
3889	0	34648	
3890	0	34416	
3891	0	34060	
3892	0	33648	
3893	0	33248	
3894	0	32784	
3895	0	32456	
3896	0	32484	
3897	0	32752	
3898	0	33162	
3899	0	33528	
3900	0	33864	
3901	0	34120	
3902	0	34084	
3903	0	33812	
3904	0	33488	
3905	0	33296	
3906	0	33344	
3907	0	33512	
3908	0	33728	
3909	0	33836	
3910	0	33792	
3911	0	33504	
3912	0	32944	
3913	0	32242	
3914	0	31596	
3915	0	31208	
3916	0	31240	
3917	0	31580	
3918	0	32036	
3919	0	32524	
3920	0	32888	
3921	0	33096	
3922	0	33096	
3923	0	32976	
3924	0	32772	
3925	0	32620	
3926	0	32668	
3927	0	32828	
3928	0	33056	
3929	0	33138	
3930	0	33112	
3931	0	32792	
3932	0	32268	
3933	0	31736	
3934	0	31200	
3935	0	30856	
3936	0	30928	
3937	0	31336	
3938	0	31898	
3939	0	32424	
3940	0	32848	
3941	0	33128	
3942	0	33236	
3943	0	33132	
3944	0	32876	
3945	0	32660	
3946	0	32696	
3947	0	32924	
3948	0	33160	
3949	0	33196	
3950	0	33092	
3951	0	32792	
3952	0	32320	
3953	0	31784	
3954	0	31226	
3955	0	30884	
3956	0	30944	
3957	0	31352	
3958	0	31948	
3959	0	32440	
3960	0	32844	
3961	0	33068	
3962	0	33160	
3963	0	33109	
3964	0	32936	
3965	0	32804	
3966	0	32928	
3967	0	33172	
3968	0	33376	
3969	0	33420	
3970	0	33308	
3971	0	33084	
3972	0	32704	
3973	0	32252	
3974	0	31840	
3975	0	31736	
3976	0	31992	
3977	0	32500	
3978	0	33132	
3979	0	33736	
3980	0	34328	
3981	0	34888	
3982	0	35264	
3983	0	35476	
3984	0	35560	
3985	0	35664	
3986	0	36052	
3987	0	36588	
3988	0	37116	
3989	0	37456	
3990	0	37604	
3991	0	37552	
3992	0	37392	
3993	0	37232	
3994	0	37244	
3995	0	37648	
3996	0	38488	
3997	0	39612	
3998	0	40720	
3999	0	41512	
4000	0	41920	
4001	0	41992	
4002	0	41768	
4003	0	41216	
4004	0	40252	
4005	0	39300	
4006	0	38728	
4007	0	38500	
4008	0	38444	
4009	0	38372	
4010	0	38084	
4011	0	37466	
4012	0	36688	
4013	0	35804	
4014	0	34912	
4015	0	34356	
4016	0	34280	
4017	0	34496	
4018	0	34836	
4019	0	35152	
4020	0	35320	
4021	0	35264	
4022	0	35084	
4023	0	34762	
4024	0	34304	
4025	0	33892	
4026	0	33740	
4027	0	33676	
4028	0	33568	
4029	0	33396	
4030	0	33104	
4031	0	32632	
4032	0	32108	
4033	0	31556	
4034	0	30900	
4035	0	30472	
4036	0	30464	
4037	0	30700	
4038	0	31108	
4039	0	31572	
4040	0	31968	
4041	0	32262	
4042	0	32312	
4043	0	32144	
4044	0	31828	
4045	0	31617	
4046	0	31712	
4047	0	31904	
4048	0	32056	
4049	0	32100	
4050	0	32028	
4051	0	31724	
4052	0	31328	
4053	0	30864	
4054	0	30376	
4055	0	30008	
4056	0	30034	
4057	0	30404	
4058	0	30912	
4059	0	31416	
4060	0	31824	
4061	0	32096	
4062	0	32192	
4063	0	32108	
4064	0	31916	
4065	0	31784	
4066	0	31864	
4067	0	32088	
4068	0	32288	
4069	0	32364	
4070	0	32292	
4071	0	32056	
4072	0	31672	
4073	0	31140	
4074	0	30536	
4075	0	30164	
4076	0	30220	
4077	0	30592	
4078	0	31120	
4079	0	31600	
4080	0	32016	
4081	0	32304	
4082	0	32440	
4083	0	32364	
4084	0	32144	
4085	0	31956	
4086	0	31976	
4087	0	32172	
4088	0	32344	
4089	0	32440	
4090	0	32440	
4091	0	32250	
4092	0	31804	
4093	0	31264	
4094	0	30672	
4095	0	30320	
4096	0	30412	
4097	0	30808	
4098	0	31340	
4099	0	31848	
4100	0	32292	
4101	0	32608	
4102	0	32720	
4103	0	32640	
4104	0	32384	
4105	0	32160	
4106	0	32236	
4107	0	32468	
4108	0	32672	
4109	0	32832	
4110	0	32788	
4111	0	32500	
4112	0	32056	
4113	0	31576	
4114	0	31048	
4115	0	30728	
4116	0	30784	
4117	0	31140	
4118	0	31656	
4119	0	32140	
4120	0	32574	
4121	0	32824	
4122	0	32984	
4123	0	32916	
4124	0	32644	
4125	0	32392	
4126	0	32376	
4127	0	32608	
4128	0	32828	
4129	0	32964	
4130	0	32928	
4131	0	32696	
4132	0	32308	
4133	0	31792	
4134	0	31200	
4135	0	30832	
4136	0	30948	
4137	0	31400	
4138	0	32005	
4139	0	32460	
4140	0	32836	
4141	0	33156	
4142	0	33260	
4143	0	33112	
4144	0	32868	
4145	0	32700	
4146	0	32772	
4147	0	33064	
4148	0	33328	
4149	0	33420	
4150	0	33324	
4151	0	33008	
4152	0	32544	
4153	0	32056	
4154	0	31532	
4155	0	31204	
4156	0	31292	
4157	0	31688	
4158	0	32184	
4159	0	32660	
4160	0	33072	
4161	0	33420	
4162	0	33568	
4163	0	33464	
4164	0	33164	
4165	0	32944	
4166	0	33028	
4167	0	33288	
4168	0	33521	
4169	0	33628	
4170	0	33564	
4171	0	33264	
4172	0	32808	
4173	0	32304	
4174	0	31836	
4175	0	31552	
4176	0	31612	
4177	0	32008	
4178	0	32536	
4179	0	33096	
4180	0	33536	
4181	0	33808	
4182	0	33864	
4183	0	33780	
4184	0	33536	
4185	0	33360	
4186	0	33472	
4187	0	33760	
4188	0	33960	
4189	0	34016	
4190	0	33940	
4191	0	33696	
4192	0	33284	
4193	0	32772	
4194	0	32228	
4195	0	31904	
4196	0	31984	
4197	0	32396	
4198	0	32888	
4199	0	33436	
4200	0	33944	
4201	0	34248	
4202	0	34372	
4203	0	34256	
4204	0	33964	
4205	0	33760	
4206	0	33852	
4207	0	34152	
4208	0	34328	
4209	0	34450	
4210	0	34444	
4211	0	34280	
4212	0	34008	
4213	0	33564	
4214	0	33044	
4215	0	32708	
4216	0	32760	
4217	0	33128	
4218	0	33652	
4219	0	34176	
4220	0	34636	
4221	0	34956	
4222	0	35044	
4223	0	34962	
4224	0	34728	
4225	0	34580	
4226	0	34680	
4227	0	34952	
4228	0	35216	
4229	0	35354	
4230	0	35280	
4231	0	34984	
4232	0	34560	
4233	0	34108	
4234	0	33572	
4235	0	33248	
4236	0	33312	
4237	0	33684	
4238	0	34172	
4239	0	34612	
4240	0	35000	
4241	0	35288	
4242	0	35436	
4243	0	35396	
4244	0	35180	
4245	0	34992	
4246	0	35016	
4247	0	35200	
4248	0	35448	
4249	0	35576	
4250	0	35520	
4251	0	35224	
4252	0	34800	
4253	0	34312	
4254	0	33832	
4255	0	33548	
4256	0	33652	
4257	0	34064	
4258	0	34520	
4259	0	34946	
4260	0	35348	
4261	0	35584	
4262	0	35626	
4263	0	35464	
4264	0	35144	
4265	0	34856	
4266	0	34832	
4267	0	35018	
4268	0	35216	
4269	0	35352	
4270	0	35264	
4271	0	34948	
4272	0	34496	
4273	0	33968	
4274	0	33328	
4275	0	32832	
4276	0	32804	
4277	0	33140	
4278	0	33640	
4279	0	34104	
4280	0	34432	
4281	0	34616	
4282	0	34672	
4283	0	34498	
4284	0	34144	
4285	0	33844	
4286	0	33828	
4287	0	33908	
4288	0	33928	
4289	0	33900	
4290	0	33704	
4291	0	33286	
4292	0	32744	
4293	0	32192	
4294	0	31612	
4295	0	31252	
4296	0	31228	
4297	0	31528	
4298	0	31968	
4299	0	32388	
4300	0	32760	
4301	0	32904	
4302	0	32842	
4303	0	32606	
4304	0	32332	
4305	0	32132	
4306	0	32128	
4307	0	32280	
4308	0	32376	
4309	0	32400	
4310	0	32324	
4311	0	32112	
4312	0	31644	
4313	0	31028	
4314	0	30404	
4315	0	29988	
4316	0	29996	
4317	0	30320	
4318	0	30772	
4319	0	31208	
4320	0	31600	
4321	0	31880	
4322	0	31960	
4323	0	31852	
4324	0	31600	
4325	0	31432	
4326	0	31444	
4327	0	31660	
4328	0	31856	
4329	0	31872	
4330	0	31708	
4331	0	31348	
4332	0	30888	
4333	0	30392	
4334	0	29848	
4335	0	29554	
4336	0	29632	
4337	0	30000	
4338	0	30478	
4339	0	30976	
4340	0	31400	
4341	0	31676	
4342	0	31792	
4343	0	31728	
4344	0	31460	
4345	0	31228	
4346	0	31288	
4347	0	31432	
4348	0	31548	
4349	0	31568	
4350	0	31480	
4351	0	31232	
4352	0	30832	
4353	0	30372	
4354	0	29868	
4355	0	29578	
4356	0	29680	
4357	0	30056	
4358	0	30512	
4359	0	30960	
4360	0	31436	
4361	0	31820	
4362	0	31964	
4363	0	31884	
4364	0	31596	
4365	0	31364	
4366	0	31452	
4367	0	31736	
4368	0	32016	
4369	0	32136	
4370	0	32012	
4371	0	31674	
4372	0	31240	
4373	0	30732	
4374	0	30180	
4375	0	29816	
4376	0	29908	
4377	0	30280	
4378	0	30740	
4379	0	31244	
4380	0	31720	
4381	0	31976	
4382	0	32008	
4383	0	31940	
4384	0	31768	
4385	0	31624	
4386	0	31720	
4387	0	31952	
4388	0	32122	
4389	0	32212	
4390	0	32176	
4391	0	31896	
4392	0	31496	
4393	0	31001	
4394	0	30504	
4395	0	30152	
4396	0	30160	
4397	0	30492	
4398	0	31032	
4399	0	31568	
4400	0	32040	
4401	0	32364	
4402	0	32460	
4403	0	32400	
4404	0	32140	
4405	0	31932	
4406	0	31996	
4407	0	32242	
4408	0	32442	
4409	0	32512	
4410	0	32452	
4411	0	32224	
4412	0	31888	
4413	0	31416	
4414	0	30856	
4415	0	30496	
4416	0	30524	
4417	0	30856	
4418	0	31368	
4419	0	31868	
4420	0	32240	
4421	0	32494	
4422	0	32612	
4423	0	32580	
4424	0	32368	
4425	0	32160	
4426	0	32184	
4427	0	32352	
4428	0	32552	
4429	0	32568	
4430	0	32464	
4431	0	32260	
4432	0	31892	
4433	0	31416	
4434	0	30920	
4435	0	30568	
4436	0	30576	
4437	0	30920	
4438	0	31448	
4439	0	31992	
4440	0	32453	
4441	0	32738	
4442	0	32832	
4443	0	32748	
4444	0	32480	
4445	0	32276	
4446	0	32344	
4447	0	32532	
4448	0	32728	
4449	0	32832	
4450	0	32772	
4451	0	32532	
4452	0	32192	
4453	0	31716	
4454	0	31240	
4455	0	30906	
4456	0	30952	
4457	0	31300	
4458	0	31804	
4459	0	32218	
4460	0	32556	
4461	0	32876	
4462	0	33024	
4463	0	32960	
4464	0	32712	
4465	0	32516	
4466	0	32536	
4467	0	32728	
4468	0	32924	
4469	0	32988	
4470	0	32896	
4471	0	32676	
4472	0	32332	
4473	0	31800	
4474	0	31252	
4475	0	30924	
4476	0	30972	
4477	0	31304	
4478	0	31764	
4479	0	32248	
4480	0	32640	
4481	0	32920	
4482	0	33048	
4483	0	32856	
4484	0	32512	
4485	0	32288	
4486	0	32356	
4487	0	32624	
4488	0	32872	
4489	0	32972	
4490	0	32900	
4491	0	32692	
4492	0	32392	
4493	0	31932	
4494	0	31352	
4495	0	30976	
4496	0	31108	
4497	0	31568	
4498	0	32092	
4499	0	32536	
4500	0	32840	
4501	0	33048	
4502	0	33144	
4503	0	33058	
4504	0	32820	
4505	0	32580	
4506	0	32568	
4507	0	32708	
4508	0	32852	
4509	0	32932	
4510	0	32904	
4511	0	32704	
4512	0	32368	
4513	0	31900	
4514	0	31360	
4515	0	30956	
4516	0	30948	
4517	0	31312	
4518	0	31816	
4519	0	32260	
4520	0	32664	
4521	0	32952	
4522	0	33032	
4523	0	32900	
4524	0	32636	
4525	0	32428	
4526	0	32488	
4527	0	32744	
4528	0	32976	
4529	0	33088	
4530	0	33024	
4531	0	32774	
4532	0	32410	
4533	0	31968	
4534	0	31444	
4535	0	31068	
4536	0	31092	
4537	0	31436	
4538	0	31920	
4539	0	32424	
4540	0	32828	
4541	0	33144	
4542	0	33284	
4543	0	33226	
4544	0	32964	
4545	0	32692	
4546	0	32704	
4547	0	32884	
4548	0	33064	
4549	0	33112	
4550	0	33016	
4551	0	32744	
4552	0	32320	
4553	0	31840	
4554	0	31348	
4555	0	31016	
4556	0	31042	
4557	0	31348	
4558	0	31880	
4559	0	32376	
4560	0	32776	
4561	0	33044	
4562	0	33146	
4563	0	33048	
4564	0	32784	
4565	0	32526	
4566	0	32568	
4567	0	32768	
4568	0	32992	
4569	0	33120	
4570	0	33108	
4571	0	32876	
4572	0	32460	
4573	0	31960	
4574	0	31432	
4575	0	31064	
4576	0	31104	
4577	0	31476	
4578	0	31952	
4579	0	32468	
4580	0	32920	
4581	0	33221	
4582	0	33312	
4583	0	33192	
4584	0	32944	
4585	0	32772	
4586	0	32832	
4587	0	32992	
4588	0	33176	
4589	0	33272	
4590	0	33220	
4591	0	32972	
4592	0	32570	
4593	0	32036	
4594	0	31488	
4595	0	31088	
4596	0	31196	
4597	0	31628	
4598	0	32156	
4599	0	32588	
4600	0	32928	
4601	0	33218	
4602	0	33352	
4603	0	33296	
4604	0	33048	
4605	0	32796	
4606	0	32804	
4607	0	33024	
4608	0	33264	
4609	0	33412	
4610	0	33328	
4611	0	33000	
4612	0	32564	
4613	0	32000	
4614	0	31492	
4615	0	31136	
4616	0	31184	
4617	0	31592	
4618	0	32084	
4619	0	32552	
4620	0	33004	
4621	0	33332	
4622	0	33432	
4623	0	33368	
4624	0	33112	
4625	0	32852	
4626	0	32872	
4627	0	33120	
4628	0	33344	
4629	0	33442	
4630	0	33364	
4631	0	33068	
4632	0	32656	
4633	0	32176	
4634	0	31628	
4635	0	31256	
4636	0	31250	
4637	0	31528	
4638	0	32040	
4639	0	32588	
4640	0	33056	
4641	0	33346	
4642	0	33428	
4643	0	33340	
4644	0	33084	
4645	0	32848	
4646	0	32872	
4647	0	33132	
4648	0	33368	
4649	0	33404	
4650	0	33356	
4651	0	33156	
4652	0	32776	
4653	0	32300	
4654	0	31768	
4655	0	31344	
4656	0	31308	
4657	0	31636	
4658	0	32088	
4659	0	32580	
4660	0	33016	
4661	0	33296	
4662	0	33428	
4663	0	33388	
4664	0	33172	
4665	0	32942	
4666	0	33000	
4667	0	33244	
4668	0	33452	
4669	0	33500	
4670	0	33365	
4671	0	33124	
4672	0	32780	
4673	0	32368	
4674	0	31836	
4675	0	31392	
4676	0	31392	
4677	0	31712	
4678	0	32116	
4679	0	32640	
4680	0	33066	
4681	0	33340	
4682	0	33484	
4683	0	33456	
4684	0	33200	
4685	0	32912	
4686	0	32896	
4687	0	33084	
4688	0	33344	
4689	0	33516	
4690	0	33566	
4691	0	33400	
4692	0	33000	
4693	0	32448	
4694	0	31916	
4695	0	31488	
4696	0	31480	
4697	0	31820	
4698	0	32256	
4699	0	32648	
4700	0	33050	
4701	0	33408	
4702	0	33600	
4703	0	33536	
4704	0	33324	
4705	0	33104	
4706	0	33130	
4707	0	33356	
4708	0	33512	
4709	0	33592	
4710	0	33544	
4711	0	33300	
4712	0	32898	
4713	0	32448	
4714	0	31944	
4715	0	31532	
4716	0	31520	
4717	0	31808	
4718	0	32264	
4719	0	32808	
4720	0	33272	
4721	0	33580	
4722	0	33704	
4723	0	33624	
4724	0	33312	
4725	0	33072	
4726	0	33148	
4727	0	33328	
4728	0	33496	
4729	0	33572	
4730	0	33506	
4731	0	33272	
4732	0	32864	
4733	0	32332	
4734	0	31828	
4735	0	31444	
4736	0	31456	
4737	0	31750	
4738	0	32244	
4739	0	32778	
4740	0	33200	
4741	0	33504	
4742	0	33636	
4743	0	33632	
4744	0	33384	
4745	0	33076	
4746	0	33056	
4747	0	33196	
4748	0	33396	
4749	0	33528	
4750	0	33488	
4751	0	33308	
4752	0	32952	
4753	0	32464	
4754	0	31940	
4755	0	31520	
4756	0	31488	
4757	0	31792	
4758	0	32276	
4759	0	32828	
4760	0	33252	
4761	0	33508	
4762	0	33584	
4763	0	33536	
4764	0	33312	
4765	0	33096	
4766	0	33108	
4767	0	33324	
4768	0	33488	
4769	0	33596	
4770	0	33596	
4771	0	33350	
4772	0	32944	
4773	0	32426	
4774	0	31876	
4775	0	31488	
4776	0	31480	
4777	0	31832	
4778	0	32332	
4779	0	32816	
4780	0	33188	
4781	0	33504	
4782	0	33672	
4783	0	33692	
4784	0	33576	
4785	0	33412	
4786	0	33444	
4787	0	33648	
4788	0	33848	
4789	0	33980	
4790	0	33976	
4791	0	33732	
4792	0	33260	
4793	0	32672	
4794	0	32120	
4795	0	31808	
4796	0	31922	
4797	0	32304	
4798	0	32800	
4799	0	33308	
4800	0	33800	
4801	0	34120	
4802	0	34272	
4803	0	34256	
4804	0	34120	
4805	0	33952	
4806	0	33972	
4807	0	34112	
4808	0	34244	
4809	0	34300	
4810	0	34248	
4811	0	33960	
4812	0	33488	
4813	0	32912	
4814	0	32392	
4815	0	32040	
4816	0	32132	
4817	0	32528	
4818	0	32984	
4819	0	33472	
4820	0	33820	
4821	0	34104	
4822	0	34348	
4823	0	34400	
4824	0	34248	
4825	0	34076	
4826	0	34088	
4827	0	34300	
4828	0	34544	
4829	0	34688	
4830	0	34652	
4831	0	34376	
4832	0	33900	
4833	0	33364	
4834	0	32824	
4835	0	32416	
4836	0	32372	
4837	0	32744	
4838	0	33280	
4839	0	33760	
4840	0	34168	
4841	0	34476	
4842	0	34592	
4843	0	34536	
4844	0	34336	
4845	0	34158	
4846	0	34136	
4847	0	34154	
4848	0	34256	
4849	0	34308	
4850	0	34240	
4851	0	33884	
4852	0	33392	
4853	0	32876	
4854	0	32320	
4855	0	31906	
4856	0	31928	
4857	0	32218	
4858	0	32570	
4859	0	33000	
4860	0	33400	
4861	0	33648	
4862	0	33644	
4863	0	33420	
4864	0	32960	
4865	0	32610	
4866	0	32604	
4867	0	32828	
4868	0	33072	
4869	0	33268	
4870	0	33152	
4871	0	32826	
4872	0	32436	
4873	0	31992	
4874	0	31456	
4875	0	31010	
4876	0	30996	
4877	0	31300	
4878	0	31716	
4879	0	32160	
4880	0	32562	
4881	0	32900	
4882	0	33032	
4883	0	32996	
4884	0	32736	
4885	0	32512	
4886	0	32564	
4887	0	32752	
4888	0	32956	
4889	0	33136	
4890	0	33128	
4891	0	32952	
4892	0	32616	
4893	0	32124	
4894	0	31572	
4895	0	31168	
4896	0	31120	
4897	0	31372	
4898	0	31776	
4899	0	32268	
4900	0	32728	
4901	0	32992	
4902	0	33080	
4903	0	32986	
4904	0	32720	
4905	0	32508	
4906	0	32560	
4907	0	32724	
4908	0	32868	
4909	0	32984	
4910	0	32964	
4911	0	32772	
4912	0	32420	
4913	0	32004	
4914	0	31512	
4915	0	31052	
4916	0	31024	
4917	0	31370	
4918	0	31904	
4919	0	32480	
4920	0	32956	
4921	0	33360	
4922	0	33652	
4923	0	33704	
4924	0	33632	
4925	0	33604	
4926	0	33740	
4927	0	34024	
4928	0	34368	
4929	0	34736	
4930	0	35056	
4931	0	35248	
4932	0	35296	
4933	0	35172	
4934	0	34908	
4935	0	34744	
4936	0	34908	
4937	0	35448	
4938	0	36120	
4939	0	36820	
4940	0	37470	
4941	0	38060	
4942	0	38572	
4943	0	39008	
4944	0	39516	
4945	0	40128	
4946	0	40924	
4947	0	41820	
4948	0	42376	
4949	0	42524	
4950	0	42312	
4951	0	41756	
4952	0	41000	
4953	0	39992	
4954	0	38784	
4955	0	37668	
4956	0	37064	
4957	0	37032	
4958	0	37324	
4959	0	37624	
4960	0	37732	
4961	0	37560	
4962	0	37200	
4963	0	36768	
4964	0	36400	
4965	0	36096	
4966	0	36004	
4967	0	36088	
4968	0	36130	
4969	0	36016	
4970	0	35626	
4971	0	35092	
4972	0	34436	
4973	0	33636	
4974	0	32728	
4975	0	31936	
4976	0	31576	
4977	0	31616	
4978	0	31848	
4979	0	32096	
4980	0	32312	
4981	0	32504	
4982	0	32540	
4983	0	32460	
4984	0	32240	
4985	0	31960	
4986	0	31852	
4987	0	31944	
4988	0	32104	
4989	0	32220	
4990	0	32216	
4991	0	32048	
4992	0	31636	
4993	0	31120	
4994	0	30564	
4995	0	30116	
4996	0	30032	
4997	0	30272	
4998	0	30784	
4999	0	31300	
5000	0	31748	
5001	0	32052	
5002	0	32136	
5003	0	32112	
5004	0	31944	
5005	0	31696	
5006	0	31680	
5007	0	31868	
5008	0	32096	
5009	0	32216	
5010	0	32212	
5011	0	31944	
5012	0	31552	
5013	0	31080	
5014	0	30532	
5015	0	30044	
5016	0	29976	
5017	0	30292	
5018	0	30780	
5019	0	31304	
5020	0	31788	
5021	0	32128	
5022	0	32272	
5023	0	32216	
5024	0	32032	
5025	0	31840	
5026	0	31824	
5027	0	31990	
5028	0	32148	
5029	0	32264	
5030	0	32272	
5031	0	32048	
5032	0	31648	
5033	0	31172	
5034	0	30680	
5035	0	30266	
5036	0	30212	
5037	0	30560	
5038	0	31132	
5039	0	31632	
5040	0	32000	
5041	0	32304	
5042	0	32468	
5043	0	32368	
5044	0	32168	
5045	0	31972	
5046	0	31996	
5047	0	32160	
5048	0	32380	
5049	0	32524	
5050	0	32544	
5051	0	32332	
5052	0	31812	
5053	0	31152	
5054	0	30672	
5055	0	30352	
5056	0	30420	
5057	0	30760	
5058	0	31236	
5059	0	31698	
5060	0	32148	
5061	0	32508	
5062	0	32700	
5063	0	32656	
5064	0	32468	
5065	0	32235	
5066	0	32216	
5067	0	32396	
5068	0	32636	
5069	0	32752	
5070	0	32708	
5071	0	32516	
5072	0	32168	
5073	0	31716	
5074	0	31252	
5075	0	30872	
5076	0	30852	
5077	0	31136	
5078	0	31644	
5079	0	32144	
5080	0	32560	
5081	0	32940	
5082	0	33112	
5083	0	33052	
5084	0	32816	
5085	0	32624	
5086	0	32648	
5087	0	32826	
5088	0	32916	
5089	0	32952	
5090	0	32920	
5091	0	32748	
5092	0	32392	
5093	0	31920	
5094	0	31392	
5095	0	30988	
5096	0	30928	
5097	0	31204	
5098	0	31732	
5099	0	32364	
5100	0	32904	
5101	0	33256	
5102	0	33380	
5103	0	33364	
5104	0	33140	
5105	0	32826	
5106	0	32772	
5107	0	32996	
5108	0	33224	
5109	0	33340	
5110	0	33320	
5111	0	33128	
5112	0	32768	
5113	0	32320	
5114	0	31816	
5115	0	31352	
5116	0	31364	
5117	0	31720	
5118	0	32256	
5119	0	32780	
5120	0	33256	
5121	0	33524	
5122	0	33624	
5123	0	33624	
5124	0	33528	
5125	0	33360	
5126	0	33340	
5127	0	33496	
5128	0	33658	
5129	0	33756	
5130	0	33728	
5131	0	33480	
5132	0	33124	
5133	0	32664	
5134	0	32116	
5135	0	31704	
5136	0	31768	
5137	0	32128	
5138	0	32536	
5139	0	33032	
5140	0	33564	
5141	0	33996	
5142	0	34200	
5143	0	34180	
5144	0	33936	
5145	0	33616	
5146	0	33532	
5147	0	33744	
5148	0	34008	
5149	0	34176	
5150	0	34220	
5151	0	34056	
5152	0	33724	
5153	0	33332	
5154	0	32872	
5155	0	32492	
5156	0	32500	
5157	0	32784	
5158	0	33260	
5159	0	33768	
5160	0	34236	
5161	0	34552	
5162	0	34692	
5163	0	34610	
5164	0	34408	
5165	0	34136	
5166	0	34088	
5167	0	34340	
5168	0	34692	
5169	0	34900	
5170	0	34904	
5171	0	34708	
5172	0	34404	
5173	0	33948	
5174	0	33400	
5175	0	32976	
5176	0	32936	
5177	0	33272	
5178	0	33768	
5179	0	34344	
5180	0	34848	
5181	0	35252	
5182	0	35472	
5183	0	35466	
5184	0	35304	
5185	0	35104	
5186	0	35068	
5187	0	35240	
5188	0	35404	
5189	0	35536	
5190	0	35524	
5191	0	35340	
5192	0	35004	
5193	0	34568	
5194	0	34016	
5195	0	33540	
5196	0	33488	
5197	0	33792	
5198	0	34288	
5199	0	34856	
5200	0	35312	
5201	0	35544	
5202	0	35640	
5203	0	35592	
5204	0	35424	
5205	0	35208	
5206	0	35144	
5207	0	35216	
5208	0	35364	
5209	0	35484	
5210	0	35448	
5211	0	35240	
5212	0	34864	
5213	0	34436	
5214	0	33926	
5215	0	33416	
5216	0	33288	
5217	0	33542	
5218	0	33992	
5219	0	34484	
5220	0	34904	
5221	0	35176	
5222	0	35241	
5223	0	35132	
5224	0	34880	
5225	0	34584	
5226	0	34452	
5227	0	34496	
5228	0	34648	
5229	0	34744	
5230	0	34648	
5231	0	34368	
5232	0	33968	
5233	0	33392	
5234	0	32752	
5235	0	32184	
5236	0	32016	
5237	0	32256	
5238	0	32640	
5239	0	33040	
5240	0	33352	
5241	0	33592	
5242	0	33688	
5243	0	33600	
5244	0	33312	
5245	0	32948	
5246	0	32808	
5247	0	32848	
5248	0	32924	
5249	0	32920	
5250	0	32792	
5251	0	32512	
5252	0	32088	
5253	0	31536	
5254	0	30968	
5255	0	30516	
5256	0	30400	
5257	0	30640	
5258	0	31040	
5259	0	31488	
5260	0	31880	
5261	0	32096	
5262	0	32180	
5263	0	32040	
5264	0	31804	
5265	0	31484	
5266	0	31340	
5267	0	31440	
5268	0	31664	
5269	0	31872	
5270	0	31924	
5271	0	31688	
5272	0	31250	
5273	0	30720	
5274	0	30140	
5275	0	29708	
5276	0	29628	
5277	0	29856	
5278	0	30308	
5279	0	30800	
5280	0	31256	
5281	0	31564	
5282	0	31712	
5283	0	31632	
5284	0	31388	
5285	0	31144	
5286	0	31162	
5287	0	31348	
5288	0	31552	
5289	0	31690	
5290	0	31664	
5291	0	31408	
5292	0	31064	
5293	0	30628	
5294	0	30092	
5295	0	29648	
5296	0	29568	
5297	0	29792	
5298	0	30252	
5299	0	30768	
5300	0	31144	
5301	0	31408	
5302	0	31592	
5303	0	31560	
5304	0	31328	
5305	0	31088	
5306	0	31133	
5307	0	31452	
5308	0	31696	
5309	0	31824	
5310	0	31772	
5311	0	31564	
5312	0	31256	
5313	0	30808	
5314	0	30176	
5315	0	29744	
5316	0	29728	
5317	0	30008	
5318	0	30476	
5319	0	30920	
5320	0	31292	
5321	0	31588	
5322	0	31696	
5323	0	31724	
5324	0	31592	
5325	0	31384	
5326	0	31368	
5327	0	31552	
5328	0	31828	
5329	0	31988	
5330	0	31936	
5331	0	31668	
5332	0	31296	
5333	0	30792	
5334	0	30136	
5335	0	29680	
5336	0	29720	
5337	0	30152	
5338	0	30768	
5339	0	31312	
5340	0	31780	
5341	0	32128	
5342	0	32262	
5343	0	32256	
5344	0	32048	
5345	0	31792	
5346	0	31800	
5347	0	32012	
5348	0	32210	
5349	0	32308	
5350	0	32289	
5351	0	32076	
5352	0	31712	
5353	0	31210	
5354	0	30640	
5355	0	30268	
5356	0	30300	
5357	0	30616	
5358	0	31096	
5359	0	31594	
5360	0	32028	
5361	0	32352	
5362	0	32492	
5363	0	32420	
5364	0	32236	
5365	0	32040	
5366	0	32088	
5367	0	32220	
5368	0	32396	
5369	0	32512	
5370	0	32484	
5371	0	32268	
5372	0	31816	
5373	0	31344	
5374	0	30832	
5375	0	30396	
5376	0	30336	
5377	0	30664	
5378	0	31168	
5379	0	31712	
5380	0	32188	
5381	0	32536	
5382	0	32672	
5383	0	32560	
5384	0	32344	
5385	0	32112	
5386	0	32140	
5387	0	32280	
5388	0	32456	
5389	0	32600	
5390	0	32548	
5391	0	32348	
5392	0	32036	
5393	0	31664	
5394	0	31176	
5395	0	30784	
5396	0	30772	
5397	0	31036	
5398	0	31452	
5399	0	31912	
5400	0	32336	
5401	0	32628	
5402	0	32782	
5403	0	32728	
5404	0	32500	
5405	0	32220	
5406	0	32176	
5407	0	32392	
5408	0	32624	
5409	0	32696	
5410	0	32708	
5411	0	32576	
5412	0	32240	
5413	0	31748	
5414	0	31184	
5415	0	30760	
5416	0	30732	
5417	0	31040	
5418	0	31504	
5419	0	31936	
5420	0	32372	
5421	0	32684	
5422	0	32824	
5423	0	32784	
5424	0	32628	
5425	0	32524	
5426	0	32552	
5427	0	32668	
5428	0	32832	
5429	0	32960	
5430	0	32956	
5431	0	32756	
5432	0	32392	
5433	0	31924	
5434	0	31420	
5435	0	30980	
5436	0	30952	
5437	0	31252	
5438	0	31704	
5439	0	32192	
5440	0	32572	
5441	0	32864	
5442	0	32976	
5443	0	32952	
5444	0	32764	
5445	0	32524	
5446	0	32520	
5447	0	32690	
5448	0	32922	
5449	0	33056	
5450	0	33016	
5451	0	32816	
5452	0	32448	
5453	0	31936	
5454	0	31328	
5455	0	30924	
5456	0	30960	
5457	0	31224	
5458	0	31656	
5459	0	32164	
5460	0	32608	
5461	0	32916	
5462	0	32994	
5463	0	32964	
5464	0	32788	
5465	0	32522	
5466	0	32456	
5467	0	32620	
5468	0	32820	
5469	0	32960	
5470	0	33064	
5471	0	32948	
5472	0	32604	
5473	0	32152	
5474	0	31560	
5475	0	31088	
5476	0	31040	
5477	0	31344	
5478	0	31780	
5479	0	32156	
5480	0	32560	
5481	0	32872	
5482	0	33056	
5483	0	33056	
5484	0	32824	
5485	0	32584	
5486	0	32592	
5487	0	32716	
5488	0	32868	
5489	0	32992	
5490	0	32940	
5491	0	32752	
5492	0	32376	
5493	0	31852	
5494	0	31332	
5495	0	30992	
5496	0	30980	
5497	0	31240	
5498	0	31700	
5499	0	32132	
5500	0	32548	
5501	0	32868	
5502	0	33132	
5503	0	33224	
5504	0	33080	
5505	0	32848	
5506	0	32844	
5507	0	32976	
5508	0	33096	
5509	0	33240	
5510	0	33252	
5511	0	33040	
5512	0	32660	
5513	0	32136	
5514	0	31584	
5515	0	31096	
5516	0	31012	
5517	0	31348	
5518	0	31824	
5519	0	32244	
5520	0	32686	
5521	0	33092	
5522	0	33220	
5523	0	33208	
5524	0	33012	
5525	0	32674	
5526	0	32572	
5527	0	32752	
5528	0	33028	
5529	0	33216	
5530	0	33184	
5531	0	32960	
5532	0	32600	
5533	0	32144	
5534	0	31528	
5535	0	31024	
5536	0	30928	
5537	0	31288	
5538	0	31824	
5539	0	32368	
5540	0	32816	
5541	0	33088	
5542	0	33200	
5543	0	33184	
5544	0	33044	
5545	0	32816	
5546	0	32840	
5547	0	33084	
5548	0	33342	
5549	0	33456	
5550	0	33396	
5551	0	33232	
5552	0	32888	
5553	0	32384	
5554	0	31832	
5555	0	31408	
5556	0	31356	
5557	0	31648	
5558	0	32064	
5559	0	32538	
5560	0	32980	
5561	0	33200	
5562	0	33330	
5563	0	33324	
5564	0	33140	
5565	0	32794	
5566	0	32660	
5567	0	32836	
5568	0	33114	
5569	0	33304	
5570	0	33272	
5571	0	33132	
5572	0	32768	
5573	0	32236	
5574	0	31744	
5575	0	31316	
5576	0	31216	
5577	0	31484	
5578	0	31944	
5579	0	32448	
5580	0	32952	
5581	0	33356	
5582	0	33520	
5583	0	33440	
5584	0	33192	
5585	0	32956	
5586	0	32924	
5587	0	33088	
5588	0	33300	
5589	0	33464	
5590	0	33498	
5591	0	33240	
5592	0	32840	
5593	0	32356	
5594	0	31824	
5595	0	31404	
5596	0	31264	
5597	0	31508	
5598	0	31968	
5599	0	32496	
5600	0	33024	
5601	0	33408	
5602	0	33608	
5603	0	33712	
5604	0	33520	
5605	0	33152	
5606	0	33040	
5607	0	33220	
5608	0	33444	
5609	0	33528	
5610	0	33456	
5611	0	33164	
5612	0	32768	
5613	0	32328	
5614	0	31840	
5615	0	31424	
5616	0	31356	
5617	0	31608	
5618	0	32012	
5619	0	32496	
5620	0	32956	
5621	0	33312	
5622	0	33524	
5623	0	33460	
5624	0	33264	
5625	0	32992	
5626	0	32900	
5627	0	33116	
5628	0	33376	
5629	0	33534	
5630	0	33528	
5631	0	33392	
5632	0	33020	
5633	0	32560	
5634	0	32052	
5635	0	31594	
5636	0	31452	
5637	0	31664	
5638	0	32100	
5639	0	32596	
5640	0	33112	
5641	0	33388	
5642	0	33400	
5643	0	33376	
5644	0	33200	
5645	0	32953	
5646	0	32904	
5647	0	33088	
5648	0	33284	
5649	0	33416	
5650	0	33428	
5651	0	33256	
5652	0	32936	
5653	0	32508	
5654	0	32008	
5655	0	31600	
5656	0	31516	
5657	0	31792	
5658	0	32232	
5659	0	32732	
5660	0	33188	
5661	0	33504	
5662	0	33700	
5663	0	33716	
5664	0	33480	
5665	0	33168	
5666	0	33096	
5667	0	33248	
5668	0	33492	
5669	0	33620	
5670	0	33554	
5671	0	33312	
5672	0	32924	
5673	0	32456	
5674	0	31948	
5675	0	31536	
5676	0	31444	
5677	0	31660	
5678	0	32192	
5679	0	32768	
5680	0	33168	
5681	0	33424	
5682	0	33602	
5683	0	33608	
5684	0	33424	
5685	0	33152	
5686	0	33116	
5687	0	33268	
5688	0	33480	
5689	0	33648	
5690	0	33616	
5691	0	33452	
5692	0	33096	
5693	0	32512	
5694	0	31928	
5695	0	31488	
5696	0	31380	
5697	0	31656	
5698	0	32184	
5699	0	32640	
5700	0	33060	
5701	0	33408	
5702	0	33516	
5703	0	33480	
5704	0	33284	
5705	0	33056	
5706	0	32972	
5707	0	33096	
5708	0	33344	
5709	0	33560	
5710	0	33664	
5711	0	33528	
5712	0	33236	
5713	0	32828	
5714	0	32280	
5715	0	31770	
5716	0	31644	
5717	0	31896	
5718	0	32376	
5719	0	32796	
5720	0	33212	
5721	0	33600	
5722	0	33748	
5723	0	33648	
5724	0	33336	
5725	0	33064	
5726	0	33108	
5727	0	33356	
5728	0	33588	
5729	0	33696	
5730	0	33668	
5731	0	33444	
5732	0	33116	
5733	0	32612	
5734	0	31984	
5735	0	31480	
5736	0	31432	
5737	0	31816	
5738	0	32408	
5739	0	33012	
5740	0	33528	
5741	0	33892	
5742	0	34080	
5743	0	34068	
5744	0	33824	
5745	0	33540	
5746	0	33554	
5747	0	33756	
5748	0	33952	
5749	0	34128	
5750	0	34224	
5751	0	34124	
5752	0	33768	
5753	0	33300	
5754	0	32816	
5755	0	32400	
5756	0	32320	
5757	0	32576	
5758	0	33024	
5759	0	33560	
5760	0	33968	
5761	0	34196	
5762	0	34260	
5763	0	34176	
5764	0	33992	
5765	0	33828	
5766	0	33824	
5767	0	34032	
5768	0	34224	
5769	0	34288	
5770	0	34234	
5771	0	34065	
5772	0	33736	
5773	0	33312	
5774	0	32824	
5775	0	32420	
5776	0	32440	
5777	0	32720	
5778	0	33104	
5779	0	33632	
5780	0	34136	
5781	0	34496	
5782	0	34632	
5783	0	34602	
5784	0	34404	
5785	0	34160	
5786	0	34104	
5787	0	34304	
5788	0	34560	
5789	0	34712	
5790	0	34740	
5791	0	34576	
5792	0	34200	
5793	0	33768	
5794	0	33188	
5795	0	32658	
5796	0	32516	
5797	0	32724	
5798	0	33120	
5799	0	33484	
5800	0	33780	
5801	0	33976	
5802	0	33968	
5803	0	33820	
5804	0	33544	
5805	0	33224	
5806	0	33176	
5807	0	33320	
5808	0	33568	
5809	0	33738	
5810	0	33720	
5811	0	33436	
5812	0	32923	
5813	0	32312	
5814	0	31668	
5815	0	31144	
5816	0	30990	
5817	0	31300	
5818	0	31860	
5819	0	32376	
5820	0	32784	
5821	0	33032	
5822	0	33128	
5823	0	33080	
5824	0	32852	
5825	0	32664	
5826	0	32660	
5827	0	32752	
5828	0	32964	
5829	0	33120	
5830	0	33092	
5831	0	32864	
5832	0	32444	
5833	0	31976	
5834	0	31440	
5835	0	30994	
5836	0	30928	
5837	0	31216	
5838	0	31720	
5839	0	32260	
5840	0	32740	
5841	0	33072	
5842	0	33256	
5843	0	33240	
5844	0	32972	
5845	0	32660	
5846	0	32570	
5847	0	32704	
5848	0	32928	
5849	0	33032	
5850	0	32988	
5851	0	32816	
5852	0	32440	
5853	0	31904	
5854	0	31352	
5855	0	30960	
5856	0	30912	
5857	0	31192	
5858	0	31736	
5859	0	32288	
5860	0	32780	
5861	0	33100	
5862	0	33200	
5863	0	33172	
5864	0	32996	
5865	0	32796	
5866	0	32752	
5867	0	32940	
5868	0	33172	
5869	0	33336	
5870	0	33368	
5871	0	33240	
5872	0	32984	
5873	0	32688	
5874	0	32338	
5875	0	32108	
5876	0	32108	
5877	0	32432	
5878	0	33096	
5879	0	33864	
5880	0	34640	
5881	0	35426	
5882	0	36000	
5883	0	36364	
5884	0	36544	
5885	0	36552	
5886	0	36752	
5887	0	37144	
5888	0	37504	
5889	0	37840	
5890	0	38020	
5891	0	38004	
5892	0	37984	
5893	0	38088	
5894	0	38276	
5895	0	38656	
5896	0	39368	
5897	0	40188	
5898	0	40848	
5899	0	41304	
5900	0	41656	
5901	0	41704	
5902	0	41468	
5903	0	40856	
5904	0	39892	
5905	0	38888	
5906	0	38298	
5907	0	38192	
5908	0	38232	
5909	0	38240	
5910	0	37932	
5911	0	37308	
5912	0	36616	
5913	0	35832	
5914	0	35100	
5915	0	34472	
5916	0	34208	
5917	0	34304	
5918	0	34608	
5919	0	34856	
5920	0	34912	
5921	0	34896	
5922	0	34748	
5923	0	34424	
5924	0	33908	
5925	0	33352	
5926	0	32992	
5927	0	32848	
5928	0	32836	
5929	0	32820	
5930	0	32672	
5931	0	32408	
5932	0	32016	
5933	0	31516	
5934	0	30960	
5935	0	30448	
5936	0	30280	
5937	0	30518	
5938	0	30960	
5939	0	31424	
5940	0	31836	
5941	0	32194	
5942	0	32292	
5943	0	32228	
5944	0	32000	
5945	0	31676	
5946	0	31620	
5947	0	31772	
5948	0	31988	
5949	0	32092	
5950	0	32042	
5951	0	31836	
5952	0	31544	
5953	0	31080	
5954	0	30484	
5955	0	30008	
5956	0	29930	
5957	0	30232	
5958	0	30696	
5959	0	31124	
5960	0	31540	
5961	0	31904	
5962	0	32064	
5963	0	32052	
5964	0	31946	
5965	0	31656	
5966	0	31564	
5967	0	31800	
5968	0	32000	
5969	0	32100	
5970	0	32128	
5971	0	31984	
5972	0	31656	
5973	0	31136	
5974	0	30586	
5975	0	30178	
5976	0	30104	
5977	0	30260	
5978	0	30676	
5979	0	31348	
5980	0	31904	
5981	0	32262	
5982	0	32440	
5983	0	32416	
5984	0	32228	
5985	0	31968	
5986	0	31856	
5987	0	31988	
5988	0	32188	
5989	0	32296	
5990	0	32328	
5991	0	32160	
5992	0	31696	
5993	0	31188	
5994	0	30730	
5995	0	30328	
5996	0	30288	
5997	0	30552	
5998	0	31040	
5999	0	31592	
6000	0	32112	
6001	0	32464	
6002	0	32564	
6003	0	32444	
6004	0	32200	
6005	0	31984	
6006	0	32020	
6007	0	32152	
6008	0	32324	
6009	0	32512	
6010	0	32564	
6011	0	32360	
6012	0	32048	
6013	0	31608	
6014	0	31052	
6015	0	30580	
6016	0	30580	
6017	0	30952	
6018	0	31432	
6019	0	31916	
6020	0	32332	
6021	0	32680	
6022	0	32896	
6023	0	32876	
6024	0	32688	
6025	0	32468	
6026	0	32404	
6027	0	32560	
6028	0	32784	
6029	0	32948	
6030	0	32952	
6031	0	32792	
6032	0	32420	
6033	0	31910	
6034	0	31416	
6035	0	31012	
6036	0	30984	
6037	0	31280	
6038	0	31796	
6039	0	32352	
6040	0	32770	
6041	0	33024	
6042	0	33108	
6043	0	33104	
6044	0	32964	
6045	0	32728	
6046	0	32800	
6047	0	33016	
6048	0	33188	
6049	0	33296	
6050	0	33288	
6051	0	33076	
6052	0	32704	
6053	0	32208	
6054	0	31700	
6055	0	31300	
6056	0	31244	
6057	0	31520	
6058	0	31988	
6059	0	32492	
6060	0	32996	
6061	0	33356	
6062	0	33488	
6063	0	33464	
6064	0	33328	
6065	0	33040	
6066	0	32944	
6067	0	33092	
6068	0	33332	
6069	0	33500	
6070	0	33456	
6071	0	33284	
6072	0	32976	
6073	0	32596	
6074	0	32044	
6075	0	31544	
6076	0	31480	
6077	0	31772	
6078	0	32258	
6079	0	32856	
6080	0	33384	
6081	0	33788	
6082	0	33972	
6083	0	33944	
6084	0	33744	
6085	0	33440	
6086	0	33344	
6087	0	33440	
6088	0	33628	
6089	0	33840	
6090	0	33960	
6091	0	33848	
6092	0	33468	
6093	0	32976	
6094	0	32444	
6095	0	32076	
6096	0	31980	
6097	0	32288	
6098	0	32772	
6099	0	33360	
6100	0	33864	
6101	0	34272	
6102	0	34376	
6103	0	34328	
6104	0	34202	
6105	0	34036	
6106	0	33988	
6107	0	34136	
6108	0	34408	
6109	0	34578	
6110	0	34600	
6111	0	34412	
6112	0	34060	
6113	0	33692	
6114	0	33300	
6115	0	32872	
6116	0	32840	
6117	0	33164	
6118	0	33624	
6119	0	34180	
6120	0	34672	
6121	0	35016	
6122	0	35184	
6123	0	35140	
6124	0	34976	
6125	0	34776	
6126	0	34720	
6127	0	34944	
6128	0	35240	
6129	0	35444	
6130	0	35444	
6131	0	35284	
6132	0	34920	
6133	0	34364	
6134	0	33800	
6135	0	33380	
6136	0	33392	
6137	0	33748	
6138	0	34324	
6139	0	34804	
6140	0	35120	
6141	0	35408	
6142	0	35552	
6143	0	35492	
6144	0	35248	
6145	0	35000	
6146	0	35024	
6147	0	35236	
6148	0	35436	
6149	0	35600	
6150	0	35624	
6151	0	35372	
6152	0	34972	
6153	0	34568	
6154	0	34068	
6155	0	33620	
6156	0	33592	
6157	0	33892	
6158	0	34280	
6159	0	34680	
6160	0	35112	
6161	0	35448	
6162	0	35604	
6163	0	35504	
6164	0	35292	
6165	0	35096	
6166	0	35016	
6167	0	34976	
6168	0	35132	
6169	0	35304	
6170	0	35356	
6171	0	35128	
6172	0	34696	
6173	0	34220	
6174	0	33648	
6175	0	33100	
6176	0	32968	
6177	0	33200	
6178	0	33604	
6179	0	34044	
6180	0	34364	
6181	0	34508	
6182	0	34537	
6183	0	34412	
6184	0	34096	
6185	0	33782	
6186	0	33688	
6187	0	33724	
6188	0	33818	
6189	0	33864	
6190	0	33752	
6191	0	33480	
6192	0	33048	
6193	0	32456	
6194	0	31840	
6195	0	31328	
6196	0	31104	
6197	0	31321	
6198	0	31764	
6199	0	32092	
6200	0	32432	
6201	0	32644	
6202	0	32648	
6203	0	32520	
6204	0	32256	
6205	0	32016	
6206	0	32004	
6207	0	32124	
6208	0	32312	
6209	0	32354	
6210	0	32324	
6211	0	32104	
6212	0	31706	
6213	0	31156	
6214	0	30584	
6215	0	30185	
6216	0	30080	
6217	0	30292	
6218	0	30696	
6219	0	31136	
6220	0	31548	
6221	0	31824	
6222	0	31944	
6223	0	31852	
6224	0	31572	
6225	0	31232	
6226	0	31228	
6227	0	31384	
6228	0	31588	
6229	0	31628	
6230	0	31644	
6231	0	31476	
6232	0	31088	
6233	0	30624	
6234	0	30032	
6235	0	29568	
6236	0	29576	
6237	0	29836	
6238	0	30228	
6239	0	30700	
6240	0	31200	
6241	0	31608	
6242	0	31728	
6243	0	31652	
6244	0	31516	
6245	0	31260	
6246	0	31244	
6247	0	31456	
6248	0	31696	
6249	0	31808	
6250	0	31812	
6251	0	31704	
6252	0	31396	
6253	0	30916	
6254	0	30308	
6255	0	29752	
6256	0	29640	
6257	0	29896	
6258	0	30360	
6259	0	30872	
6260	0	31264	
6261	0	31604	
6262	0	31768	
6263	0	31840	
6264	0	31756	
6265	0	31484	
6266	0	31384	
6267	0	31552	
6268	0	31744	
6269	0	31832	
6270	0	31784	
6271	0	31632	
6272	0	31328	
6273	0	30846	
6274	0	30288	
6275	0	29832	
6276	0	29840	
6277	0	30144	
6278	0	30644	
6279	0	31164	
6280	0	31608	
6281	0	31960	
6282	0	32160	
6283	0	32152	
6284	0	31960	
6285	0	31688	
6286	0	31656	
6287	0	31896	
6288	0	32096	
6289	0	32176	
6290	0	32156	
6291	0	32008	
6292	0	31648	
6293	0	31248	
6294	0	30832	
6295	0	30400	
6296	0	30298	
6297	0	30570	
6298	0	31036	
6299	0	31486	
6300	0	31888	
6301	0	32192	
6302	0	32400	
6303	0	32416	
6304	0	32262	
6305	0	31986	
6306	0	31880	
6307	0	31960	
6308	0	32104	
6309	0	32232	
6310	0	32304	
6311	0	32204	
6312	0	31928	
6313	0	31460	
6314	0	31008	
6315	0	30616	
6316	0	30512	
6317	0	30824	
6318	0	31382	
6319	0	31840	
6320	0	32180	
6321	0	32456	
6322	0	32600	
6323	0	32544	
6324	0	32352	
6325	0	32168	
6326	0	32184	
6327	0	32384	
6328	0	32600	
6329	0	32684	
6330	0	32716	
6331	0	32596	
6332	0	32272	
6333	0	31788	
6334	0	31212	
6335	0	30684	
6336	0	30512	
6337	0	30752	
6338	0	31280	
6339	0	31816	
6340	0	32248	
6341	0	32512	
6342	0	32648	
6343	0	32648	
6344	0	32448	
6345	0	32196	
6346	0	32176	
6347	0	32356	
6348	0	32612	
6349	0	32744	
6350	0	32740	
6351	0	32524	
6352	0	32256	
6353	0	31898	
6354	0	31344	
6355	0	30876	
6356	0	30752	
6357	0	31024	
6358	0	31488	
6359	0	31908	
6360	0	32300	
6361	0	32714	
6362	0	32860	
6363	0	32776	
6364	0	32620	
6365	0	32416	
6366	0	32384	
6367	0	32504	
6368	0	32696	
6369	0	32844	
6370	0	32908	
6371	0	32748	
6372	0	32384	
6373	0	31936	
6374	0	31460	
6375	0	31036	
6376	0	30868	
6377	0	31080	
6378	0	31528	
6379	0	32000	
6380	0	32432	
6381	0	32784	
6382	0	32932	
6383	0	32874	
6384	0	32736	
6385	0	32536	
6386	0	32512	
6387	0	32648	
6388	0	32872	
6389	0	33032	
6390	0	32952	
6391	0	32688	
6392	0	32460	
6393	0	32024	
6394	0	31400	
6395	0	30968	
6396	0	30944	
6397	0	31280	
6398	0	31720	
6399	0	32156	
6400	0	32588	
6401	0	32968	
6402	0	33172	
6403	0	33176	
6404	0	32948	
6405	0	32676	
6406	0	32608	
6407	0	32722	
6408	0	32852	
6409	0	33033	
6410	0	33022	
6411	0	32844	
6412	0	32524	
6413	0	32128	
6414	0	31604	
6415	0	31158	
6416	0	31052	
6417	0	31248	
6418	0	31712	
6419	0	32248	
6420	0	32680	
6421	0	32940	
6422	0	33052	
6423	0	33060	
6424	0	32898	
6425	0	32632	
6426	0	32572	
6427	0	32716	
6428	0	32908	
6429	0	33049	
6430	0	33032	
6431	0	32868	
6432	0	32612	
6433	0	32160	
6434	0	31616	
6435	0	31050	
6436	0	30856	
6437	0	31144	
6438	0	31692	
6439	0	32220	
6440	0	32650	
6441	0	32992	
6442	0	33084	
6443	0	33088	
6444	0	32956	
6445	0	32680	
6446	0	32660	
6447	0	32796	
6448	0	32928	
6449	0	32980	
6450	0	32970	
6451	0	32840	
6452	0	32536	
6453	0	32154	
6454	0	31572	
6455	0	31128	
6456	0	31072	
6457	0	31364	
6458	0	31920	
6459	0	32424	
6460	0	32760	
6461	0	33024	
6462	0	33184	
6463	0	33060	
6464	0	32824	
6465	0	32600	
6466	0	32636	
6467	0	32888	
6468	0	33056	
6469	0	33176	
6470	0	33188	
6471	0	32924	
6472	0	32552	
6473	0	32092	
6474	0	31652	
6475	0	31280	
6476	0	31204	
6477	0	31512	
6478	0	31928	
6479	0	32320	
6480	0	32640	
6481	0	32988	
6482	0	33168	
6483	0	33120	
6484	0	32948	
6485	0	32692	
6486	0	32608	
6487	0	32804	
6488	0	33088	
6489	0	33284	
6490	0	33280	
6491	0	33028	
6492	0	32768	
6493	0	32348	
6494	0	31792	
6495	0	31328	
6496	0	31208	
6497	0	31540	
6498	0	31980	
6499	0	32416	
6500	0	32764	
6501	0	33132	
6502	0	33312	
6503	0	33256	
6504	0	33088	
6505	0	32868	
6506	0	32776	
6507	0	32896	
6508	0	33072	
6509	0	33184	
6510	0	33176	
6511	0	33052	
6512	0	32768	
6513	0	32348	
6514	0	31912	
6515	0	31450	
6516	0	31256	
6517	0	31432	
6518	0	31908	
6519	0	32458	
6520	0	32872	
6521	0	33108	
6522	0	33244	
6523	0	33240	
6524	0	33112	
6525	0	32848	
6526	0	32828	
6527	0	33004	
6528	0	33200	
6529	0	33384	
6530	0	33388	
6531	0	33152	
6532	0	32712	
6533	0	32304	
6534	0	31840	
6535	0	31432	
6536	0	31400	
6537	0	31628	
6538	0	32080	
6539	0	32624	
6540	0	33044	
6541	0	33312	
6542	0	33480	
6543	0	33528	
6544	0	33328	
6545	0	33124	
6546	0	33100	
6547	0	33204	
6548	0	33412	
6549	0	33516	
6550	0	33488	
6551	0	33260	
6552	0	32844	
6553	0	32372	
6554	0	31940	
6555	0	31492	
6556	0	31332	
6557	0	31548	
6558	0	32032	
6559	0	32528	
6560	0	32952	
6561	0	33248	
6562	0	33312	
6563	0	33308	
6564	0	33232	
6565	0	32952	
6566	0	32872	
6567	0	33148	
6568	0	33324	
6569	0	33352	
6570	0	33392	
6571	0	33256	
6572	0	32856	
6573	0	32364	
6574	0	31860	
6575	0	31424	
6576	0	31268	
6577	0	31512	
6578	0	32068	
6579	0	32600	
6580	0	33008	
6581	0	33328	
6582	0	33488	
6583	0	33500	
6584	0	33280	
6585	0	32960	
6586	0	32930	
6587	0	33108	
6588	0	33444	
6589	0	33668	
6590	0	33656	
6591	0	33428	
6592	0	32968	
6593	0	32528	
6594	0	31996	
6595	0	31432	
6596	0	31272	
6597	0	31576	
6598	0	32056	
6599	0	32600	
6600	0	32976	
6601	0	33212	
6602	0	33384	
6603	0	33412	
6604	0	33312	
6605	0	33136	
6606	0	33068	
6607	0	33200	
6608	0	33368	
6609	0	33492	
6610	0	33546	
6611	0	33368	
6612	0	32976	
6613	0	32448	
6614	0	31928	
6615	0	31488	
6616	0	31424	
6617	0	31708	
6618	0	32208	
6619	0	32656	
6620	0	32988	
6621	0	33357	
6622	0	33608	
6623	0	33636	
6624	0	33440	
6625	0	33200	
6626	0	33164	
6627	0	33332	
6628	0	33556	
6629	0	33648	
6630	0	33548	
6631	0	33312	
6632	0	32936	
6633	0	32556	
6634	0	32068	
6635	0	31660	
6636	0	31572	
6637	0	31844	
6638	0	32300	
6639	0	32696	
6640	0	33100	
6641	0	33424	
6642	0	33500	
6643	0	33564	
6644	0	33508	
6645	0	33336	
6646	0	33184	
6647	0	33220	
6648	0	33396	
6649	0	33620	
6650	0	33666	
6651	0	33332	
6652	0	32828	
6653	0	32320	
6654	0	31780	
6655	0	31360	
6656	0	31424	
6657	0	31796	
6658	0	32300	
6659	0	32748	
6660	0	33104	
6661	0	33416	
6662	0	33656	
6663	0	33696	
6664	0	33516	
6665	0	33272	
6666	0	33304	
6667	0	33556	
6668	0	33900	
6669	0	34092	
6670	0	34028	
6671	0	33760	
6672	0	33424	
6673	0	32912	
6674	0	32362	
6675	0	31920	
6676	0	31836	
6677	0	32200	
6678	0	32768	
6679	0	33288	
6680	0	33684	
6681	0	33980	
6682	0	34228	
6683	0	34228	
6684	0	34036	
6685	0	33790	
6686	0	33688	
6687	0	33816	
6688	0	33972	
6689	0	34012	
6690	0	33936	
6691	0	33792	
6692	0	33548	
6693	0	33152	
6694	0	32672	
6695	0	32312	
6696	0	32278	
6697	0	32480	
6698	0	32844	
6699	0	33282	
6700	0	33748	
6701	0	34120	
6702	0	34368	
6703	0	34376	
6704	0	34244	
6705	0	34064	
6706	0	34044	
6707	0	34232	
6708	0	34456	
6709	0	34596	
6710	0	34616	
6711	0	34432	
6712	0	34076	
6713	0	33616	
6714	0	33088	
6715	0	32564	
6716	0	32468	
6717	0	32752	
6718	0	33128	
6719	0	33572	
6720	0	33984	
6721	0	34280	
6722	0	34492	
6723	0	34512	
6724	0	34302	
6725	0	34000	
6726	0	33816	
6727	0	33848	
6728	0	33970	
6729	0	34134	
6730	0	34124	
6731	0	33868	
6732	0	33452	
6733	0	32856	
6734	0	32228	
6735	0	31760	
6736	0	31688	
6737	0	32016	
6738	0	32448	
6739	0	32692	
6740	0	32832	
6741	0	32964	
6742	0	32976	
6743	0	32844	
6744	0	32696	
6745	0	32588	
6746	0	32620	
6747	0	32760	
6748	0	32952	
6749	0	33080	
6750	0	33052	
6751	0	32852	
6752	0	32512	
6753	0	32048	
6754	0	31536	
6755	0	31096	
6756	0	30938	
6757	0	31200	
6758	0	31658	
6759	0	32096	
6760	0	32504	
6761	0	32834	
6762	0	33048	
6763	0	33080	
6764	0	32976	
6765	0	32728	
6766	0	32580	
6767	0	32648	
6768	0	32848	
6769	0	32988	
6770	0	33088	
6771	0	33008	
6772	0	32764	
6773	0	32336	
6774	0	31732	
6775	0	31178	
6776	0	31004	
6777	0	31228	
6778	0	31658	
6779	0	32108	
6780	0	32592	
6781	0	33004	
6782	0	33144	
6783	0	33128	
6784	0	32962	
6785	0	32756	
6786	0	32808	
6787	0	33052	
6788	0	33212	
6789	0	33286	
6790	0	33312	
6791	0	33176	
6792	0	32860	
6793	0	32396	
6794	0	31960	
6795	0	31572	
6796	0	31400	
6797	0	31592	
6798	0	32028	
6799	0	32548	
6800	0	33058	
6801	0	33504	
6802	0	33788	
6803	0	33824	
6804	0	33792	
6805	0	33652	
6806	0	33668	
6807	0	34016	
6808	0	34536	
6809	0	34996	
6810	0	35354	
6811	0	35508	
6812	0	35496	
6813	0	35408	
6814	0	35224	
6815	0	35048	
6816	0	35188	
6817	0	35696	
6818	0	36402	
6819	0	37188	
6820	0	38032	
6821	0	38820	
6822	0	39656	
6823	0	40356	
6824	0	40856	
6825	0	41108	
6826	0	41248	
6827	0	41352	
6828	0	41336	
6829	0	41084	
6830	0	40580	
6831	0	39688	
6832	0	38696	
6833	0	37672	
6834	0	36648	
6835	0	35820	
6836	0	35444	
6837	0	35492	
6838	0	35640	
6839	0	35832	
6840	0	36056	
6841	0	36024	
6842	0	35864	
6843	0	35680	
6844	0	35380	
6845	0	35016	
6846	0	34872	
6847	0	34864	
6848	0	34904	
6849	0	34836	
6850	0	34676	
6851	0	34340	
6852	0	33808	
6853	0	33096	
6854	0	32228	
6855	0	31520	
6856	0	31176	
6857	0	31156	
6858	0	31380	
6859	0	31780	
6860	0	32188	
6861	0	32576	
6862	0	32736	
6863	0	32664	
6864	0	32468	
6865	0	32192	
6866	0	32032	
6867	0	32048	
6868	0	32196	
6869	0	32372	
6870	0	32412	
6871	0	32320	
6872	0	32064	
6873	0	31588	
6874	0	31036	
6875	0	30616	
6876	0	30500	
6877	0	30688	
6878	0	31044	
6879	0	31464	
6880	0	31892	
6881	0	32212	
6882	0	32344	
6883	0	32328	
6884	0	32200	
6885	0	31994	
6886	0	31880	
6887	0	31996	
6888	0	32256	
6889	0	32472	
6890	0	32530	
6891	0	32332	
6892	0	31984	
6893	0	31560	
6894	0	30968	
6895	0	30428	
6896	0	30276	
6897	0	30528	
6898	0	30960	
6899	0	31428	
6900	0	31836	
6901	0	32140	
6902	0	32276	
6903	0	32240	
6904	0	32088	
6905	0	31880	
6906	0	31844	
6907	0	32008	
6908	0	32252	
6909	0	32472	
6910	0	32520	
6911	0	32360	
6912	0	32018	
6913	0	31572	
6914	0	31036	
6915	0	30548	
6916	0	30400	
6917	0	30712	
6918	0	31160	
6919	0	31584	
6920	0	31972	
6921	0	32404	
6922	0	32640	
6923	0	32712	
6924	0	32596	
6925	0	32308	
6926	0	32256	
6927	0	32412	
6928	0	32592	
6929	0	32768	
6930	0	32768	
6931	0	32676	
6932	0	32392	
6933	0	32004	
6934	0	31524	
6935	0	30976	
6936	0	30784	
6937	0	30976	
6938	0	31424	
6939	0	31888	
6940	0	32368	
6941	0	32728	
6942	0	32936	
6943	0	32968	
6944	0	32836	
6945	0	32572	
6946	0	32424	
6947	0	32532	
6948	0	32788	
6949	0	32960	
6950	0	33000	
6951	0	32876	
6952	0	32544	
6953	0	32116	
6954	0	31634	
6955	0	31152	
6956	0	30960	
6957	0	31188	
6958	0	31632	
6959	0	32120	
6960	0	32568	
6961	0	32944	
6962	0	33132	
6963	0	33184	
6964	0	33020	
6965	0	32756	
6966	0	32674	
6967	0	32776	
6968	0	32940	
6969	0	33080	
6970	0	33176	
6971	0	33072	
6972	0	32784	
6973	0	32348	
6974	0	31824	
6975	0	31404	
6976	0	31300	
6977	0	31560	
6978	0	31938	
6979	0	32364	
6980	0	32820	
6981	0	33276	
6982	0	33600	
6983	0	33644	
6984	0	33412	
6985	0	33104	
6986	0	33032	
6987	0	33240	
6988	0	33456	
6989	0	33652	
6990	0	33712	
6991	0	33512	
6992	0	33092	
6993	0	32624	
6994	0	32148	
6995	0	31658	
6996	0	31524	
6997	0	31800	
6998	0	32232	
6999	0	32692	
7000	0	33186	
7001	0	33620	
7002	0	33784	
7003	0	33716	
7004	0	33484	
7005	0	33212	
7006	0	33184	
7007	0	33344	
7008	0	33544	
7009	0	33768	
7010	0	33892	
7011	0	33804	
7012	0	33496	
7013	0	33048	
7014	0	32600	
7015	0	32208	
7016	0	32048	
7017	0	32196	
7018	0	32640	
7019	0	33068	
7020	0	33452	
7021	0	33864	
7022	0	34088	
7023	0	34200	
7024	0	34092	
7025	0	33876	
7026	0	33848	
7027	0	34020	
7028	0	34264	
7029	0	34448	
7030	0	34480	
7031	0	34286	
7032	0	33936	
7033	0	33552	
7034	0	33088	
7035	0	32680	
7036	0	32596	
7037	0	32760	
7038	0	33180	
7039	0	33716	
7040	0	34228	
7041	0	34536	
7042	0	34720	
7043	0	34744	
7044	0	34628	
7045	0	34424	
7046	0	34264	
7047	0	34416	
7048	0	34716	
7049	0	34980	
7050	0	35096	
7051	0	34996	
7052	0	34656	
7053	0	34120	
7054	0	33660	
7055	0	33256	
7056	0	33120	
7057	0	33340	
7058	0	33856	
7059	0	34348	
7060	0	34844	
7061	0	35232	
7062	0	35424	
7063	0	35472	
7064	0	35300	
7065	0	35048	
7066	0	34964	
7067	0	35052	
7068	0	35252	
7069	0	35408	
7070	0	35420	
7071	0	35240	
7072	0	34960	
7073	0	34592	
7074	0	34088	
7075	0	33624	
7076	0	33440	
7077	0	33696	
7078	0	34200	
7079	0	34756	
7080	0	35136	
7081	0	35396	
7082	0	35556	
7083	0	35576	
7084	0	35428	
7085	0	35148	
7086	0	35036	
7087	0	35192	
7088	0	35356	
7089	0	35516	
7090	0	35588	
7091	0	35412	
7092	0	35052	
7093	0	34552	
7094	0	33996	
7095	0	33464	
7096	0	33240	
7097	0	33416	
7098	0	33816	
7099	0	34216	
7100	0	34584	
7101	0	34892	
7102	0	35000	
7103	0	34896	
7104	0	34592	
7105	0	34208	
7106	0	34100	
7107	0	34216	
7108	0	34330	
7109	0	34368	
7110	0	34297	
7111	0	34096	
7112	0	33720	
7113	0	33153	
7114	0	32488	
7115	0	31896	
7116	0	31614	
7117	0	31752	
7118	0	32112	
7119	0	32520	
7120	0	32756	
7121	0	32916	
7122	0	33136	
7123	0	33240	
7124	0	33008	
7125	0	32696	
7126	0	32552	
7127	0	32608	
7128	0	32728	
7129	0	32792	
7130	0	32716	
7131	0	32544	
7132	0	32200	
7133	0	31700	
7134	0	31088	
7135	0	30472	
7136	0	30224	
7137	0	30336	
7138	0	30664	
7139	0	31096	
7140	0	31560	
7141	0	31872	
7142	0	31952	
7143	0	31952	
7144	0	31776	
7145	0	31476	
7146	0	31380	
7147	0	31524	
7148	0	31760	
7149	0	31884	
7150	0	31848	
7151	0	31684	
7152	0	31312	
7153	0	30764	
7154	0	30170	
7155	0	29736	
7156	0	29648	
7157	0	29912	
7158	0	30360	
7159	0	30816	
7160	0	31200	
7161	0	31488	
7162	0	31616	
7163	0	31592	
7164	0	31436	
7165	0	31148	
7166	0	31020	
7167	0	31162	
7168	0	31436	
7169	0	31624	
7170	0	31628	
7171	0	31496	
7172	0	31140	
7173	0	30548	
7174	0	30010	
7175	0	29608	
7176	0	29544	
7177	0	29772	
7178	0	30228	
7179	0	30724	
7180	0	31128	
7181	0	31424	
7182	0	31594	
7183	0	31612	
7184	0	31530	
7185	0	31308	
7186	0	31196	
7187	0	31354	
7188	0	31600	
7189	0	31792	
7190	0	31848	
7191	0	31656	
7192	0	31368	
7193	0	30956	
7194	0	30334	
7195	0	29932	
7196	0	29769	
7197	0	29966	
7198	0	30380	
7199	0	30868	
7200	0	31328	
7201	0	31748	
7202	0	31972	
7203	0	31928	
7204	0	31744	
7205	0	31482	
7206	0	31440	
7207	0	31644	
7208	0	31932	
7209	0	32156	
7210	0	32228	
7211	0	32108	
7212	0	31738	
7213	0	31290	
7214	0	30840	
7215	0	30344	
7216	0	30128	
7217	0	30276	
7218	0	30664	
7219	0	31096	
7220	0	31552	
7221	0	32048	
7222	0	32316	
7223	0	32396	
7224	0	32224	
7225	0	31933	
7226	0	31820	
7227	0	31968	
7228	0	32208	
7229	0	32344	
7230	0	32364	
7231	0	32200	
7232	0	31860	
7233	0	31420	
7234	0	30934	
7235	0	30464	
7236	0	30320	
7237	0	30584	
7238	0	31028	
7239	0	31472	
7240	0	31844	
7241	0	32192	
7242	0	32420	
7243	0	32476	
7244	0	32340	
7245	0	32140	
7246	0	32068	
7247	0	32184	
7248	0	32472	
7249	0	32724	
7250	0	32740	
7251	0	32584	
7252	0	32284	
7253	0	31816	
7254	0	31228	
7255	0	30684	
7256	0	30536	
7257	0	30728	
7258	0	31240	
7259	0	31764	
7260	0	32192	
7261	0	32504	
7262	0	32716	
7263	0	32776	
7264	0	32696	
7265	0	32469	
7266	0	32336	
7267	0	32416	
7268	0	32608	
7269	0	32774	
7270	0	32828	
7271	0	32684	
7272	0	32352	
7273	0	31936	
7274	0	31516	
7275	0	31068	
7276	0	30848	
7277	0	30964	
7278	0	31364	
7279	0	31844	
7280	0	32304	
7281	0	32664	
7282	0	32844	
7283	0	32860	
7284	0	32756	
7285	0	32548	
7286	0	32480	
7287	0	32548	
7288	0	32712	
7289	0	32840	
7290	0	32848	
7291	0	32836	
7292	0	32576	
7293	0	32132	
7294	0	31572	
7295	0	31028	
7296	0	30880	
7297	0	31088	
7298	0	31544	
7299	0	32056	
7300	0	32424	
7301	0	32748	
7302	0	32946	
7303	0	32896	
7304	0	32772	
7305	0	32576	
7306	0	32528	
7307	0	32728	
7308	0	33004	
7309	0	33164	
7310	0	33178	
7311	0	32992	
7312	0	32680	
7313	0	32236	
7314	0	31636	
7315	0	31032	
7316	0	30784	
7317	0	30908	
7318	0	31280	
7319	0	31808	
7320	0	32292	
7321	0	32704	
7322	0	32912	
7323	0	32964	
7324	0	32808	
7325	0	32520	
7326	0	32452	
7327	0	32644	
7328	0	32804	
7329	0	32928	
7330	0	32952	
7331	0	32820	
7332	0	32476	
7333	0	32056	
7334	0	31584	
7335	0	31120	
7336	0	30920	
7337	0	31076	
7338	0	31496	
7339	0	31936	
7340	0	32400	
7341	0	32752	
7342	0	32986	
7343	0	33060	
7344	0	32944	
7345	0	32652	
7346	0	32500	
7347	0	32652	
7348	0	32912	
7349	0	33032	
7350	0	33032	
7351	0	32888	
7352	0	32600	
7353	0	32144	
7354	0	31584	
7355	0	31012	
7356	0	30704	
7357	0	30896	
7358	0	31404	
7359	0	31898	
7360	0	32312	
7361	0	32658	
7362	0	32896	
7363	0	32992	
7364	0	32852	
7365	0	32624	
7366	0	32572	
7367	0	32656	
7368	0	32840	
7369	0	33008	
7370	0	33016	
7371	0	32872	
7372	0	32592	
7373	0	32232	
7374	0	31784	
7375	0	31260	
7376	0	31024	
7377	0	31236	
7378	0	31716	
7379	0	32196	
7380	0	32616	
7381	0	32912	
7382	0	33068	
7383	0	33040	
7384	0	32912	
7385	0	32720	
7386	0	32628	
7387	0	32720	
7388	0	32852	
7389	0	33016	
7390	0	33052	
7391	0	32924	
7392	0	32648	
7393	0	32192	
7394	0	31648	
7395	0	31128	
7396	0	30936	
7397	0	31188	
7398	0	31668	
7399	0	32168	
7400	0	32604	
7401	0	32996	
7402	0	33228	
7403	0	33280	
7404	0	33076	
7405	0	32772	
7406	0	32648	
7407	0	32856	
7408	0	33184	
7409	0	33304	
7410	0	33248	
7411	0	33004	
7412	0	32592	
7413	0	32204	
7414	0	31746	
7415	0	31220	
7416	0	31016	
7417	0	31232	
7418	0	31744	
7419	0	32328	
7420	0	32836	
7421	0	33178	
7422	0	33312	
7423	0	33196	
7424	0	32928	
7425	0	32648	
7426	0	32616	
7427	0	32748	
7428	0	33040	
7429	0	33208	
7430	0	33228	
7431	0	33064	
7432	0	32688	
7433	0	32240	
7434	0	31752	
7435	0	31268	
7436	0	31072	
7437	0	31248	
7438	0	31700	
7439	0	32208	
7440	0	32640	
7441	0	33016	
7442	0	33268	
7443	0	33276	
7444	0	33076	
7445	0	32808	
7446	0	32756	
7447	0	32936	
7448	0	33124	
7449	0	33204	
7450	0	33198	
7451	0	33092	
7452	0	32820	
7453	0	32468	
7454	0	31960	
7455	0	31444	
7456	0	31228	
7457	0	31436	
7458	0	31928	
7459	0	32436	
7460	0	32848	
7461	0	33140	
7462	0	33288	
7463	0	33328	
7464	0	33272	
7465	0	33104	
7466	0	32972	
7467	0	33004	
7468	0	33212	
7469	0	33320	
7470	0	33328	
7471	0	33184	
7472	0	32872	
7473	0	32432	
7474	0	31916	
7475	0	31376	
7476	0	31168	
7477	0	31384	
7478	0	31892	
7479	0	32380	
7480	0	32768	
7481	0	33088	
7482	0	33312	
7483	0	33428	
7484	0	33360	
7485	0	33192	
7486	0	33096	
7487	0	33200	
7488	0	33356	
7489	0	33512	
7490	0	33512	
7491	0	33320	
7492	0	32952	
7493	0	32528	
7494	0	32036	
7495	0	31552	
7496	0	31328	
7497	0	31504	
7498	0	31988	
7499	0	32556	
7500	0	32956	
7501	0	33288	
7502	0	33464	
7503	0	33464	
7504	0	33320	
7505	0	33024	
7506	0	32888	
7507	0	33024	
7508	0	33280	
7509	0	33432	
7510	0	33428	
7511	0	33220	
7512	0	32912	
7513	0	32472	
7514	0	31960	
7515	0	31428	
7516	0	31248	
7517	0	31488	
7518	0	31984	
7519	0	32544	
7520	0	33048	
7521	0	33404	
7522	0	33544	
7523	0	33512	
7524	0	33294	
7525	0	32996	
7526	0	32932	
7527	0	33100	
7528	0	33292	
7529	0	33496	
7530	0	33576	
7531	0	33384	
7532	0	33020	
7533	0	32584	
7534	0	32048	
7535	0	31548	
7536	0	31352	
7537	0	31516	
7538	0	31924	
7539	0	32416	
7540	0	32908	
7541	0	33356	
7542	0	33628	
7543	0	33620	
7544	0	33448	
7545	0	33164	
7546	0	33048	
7547	0	33176	
7548	0	33396	
7549	0	33536	
7550	0	33584	
7551	0	33456	
7552	0	33104	
7553	0	32654	
7554	0	32132	
7555	0	31640	
7556	0	31408	
7557	0	31524	
7558	0	31988	
7559	0	32520	
7560	0	32928	
7561	0	33220	
7562	0	33404	
7563	0	33452	
7564	0	33348	
7565	0	33108	
7566	0	33028	
7567	0	33224	
7568	0	33444	
7569	0	33600	
7570	0	33628	
7571	0	33522	
7572	0	33228	
7573	0	32820	
7574	0	32300	
7575	0	31736	
7576	0	31508	
7577	0	31680	
7578	0	32000	
7579	0	32396	
7580	0	32812	
7581	0	33160	
7582	0	33304	
7583	0	33360	
7584	0	33280	
7585	0	33044	
7586	0	32992	
7587	0	33176	
7588	0	33448	
7589	0	33684	
7590	0	33736	
7591	0	33604	
7592	0	33304	
7593	0	32904	
7594	0	32408	
7595	0	31914	
7596	0	31728	
7597	0	31936	
7598	0	32400	
7599	0	32896	
7600	0	33324	
7601	0	33660	
7602	0	33892	
7603	0	33928	
7604	0	33784	
7605	0	33524	
7606	0	33476	
7607	0	33672	
7608	0	33976	
7609	0	34168	
7610	0	34240	
7611	0	34172	
7612	0	33904	
7613	0	33506	
7614	0	33008	
7615	0	32496	
7616	0	32228	
7617	0	32340	
7618	0	32732	
7619	0	33220	
7620	0	33644	
7621	0	33976	
7622	0	34152	
7623	0	34220	
7624	0	34136	
7625	0	33916	
7626	0	33804	
7627	0	33876	
7628	0	34032	
7629	0	34136	
7630	0	34220	
7631	0	34248	
7632	0	34016	
7633	0	33564	
7634	0	33024	
7635	0	32588	
7636	0	32408	
7637	0	32608	
7638	0	33086	
7639	0	33632	
7640	0	34044	
7641	0	34384	
7642	0	34573	
7643	0	34632	
7644	0	34484	
7645	0	34192	
7646	0	34088	
7647	0	34200	
7648	0	34456	
7649	0	34626	
7650	0	34720	
7651	0	34580	
7652	0	34104	
7653	0	33564	
7654	0	33056	
7655	0	32556	
7656	0	32280	
7657	0	32360	
7658	0	32684	
7659	0	33104	
7660	0	33492	
7661	0	33744	
7662	0	33812	
7663	0	33772	
7664	0	33672	
7665	0	33444	
7666	0	33304	
7667	0	33396	
7668	0	33616	
7669	0	33688	
7670	0	33576	
7671	0	33296	
7672	0	32916	
7673	0	32398	
7674	0	31820	
7675	0	31256	
7676	0	30952	
7677	0	31040	
7678	0	31432	
7679	0	31904	
7680	0	32360	
7681	0	32788	
7682	0	33056	
7683	0	33128	
7684	0	33004	
7685	0	32752	
7686	0	32616	
7687	0	32704	
7688	0	32948	
7689	0	33136	
7690	0	33176	
7691	0	33024	
7692	0	32728	
7693	0	32348	
7694	0	31772	
7695	0	31192	
7696	0	31008	
7697	0	31200	
7698	0	31628	
7699	0	32168	
7700	0	32648	
7701	0	33036	
7702	0	33216	
7703	0	33152	
7704	0	32972	
7705	0	32728	
7706	0	32628	
7707	0	32698	
7708	0	32852	
7709	0	33044	
7710	0	33160	
7711	0	33040	
7712	0	32728	
7713	0	32300	
7714	0	31760	
7715	0	31208	
7716	0	30976	
7717	0	31114	
7718	0	31540	
7719	0	32152	
7720	0	32676	
7721	0	33124	
7722	0	33360	
7723	0	33380	
7724	0	33208	
7725	0	32920	
7726	0	32868	
7727	0	33088	
7728	0	33356	
7729	0	33522	
7730	0	33632	
7731	0	33674	
7732	0	33552	
7733	0	33192	
7734	0	32712	
7735	0	32296	
7736	0	32346	
7737	0	32960	
7738	0	33844	
7739	0	34760	
7740	0	35584	
7741	0	36264	
7742	0	36696	
7743	0	36976	
7744	0	37096	
7745	0	37104	
7746	0	37208	
7747	0	37608	
7748	0	38184	
7749	0	38712	
7750	0	39220	
7751	0	39764	
7752	0	40240	
7753	0	40600	
7754	0	40844	
7755	0	40754	
7756	0	40540	
7757	0	40532	
7758	0	40652	
7759	0	40696	
7760	0	40532	
7761	0	40204	
7762	0	39708	
7763	0	39144	
7764	0	38624	
7765	0	38176	
7766	0	37948	
7767	0	37784	
7768	0	37592	
7769	0	37320	
7770	0	36964	
7771	0	36548	
7772	0	36072	
7773	0	35572	
7774	0	34980	
7775	0	34260	
7776	0	33780	
7777	0	33708	
7778	0	33816	
7779	0	34004	
7780	0	34192	
7781	0	34264	
7782	0	34176	
7783	0	33896	
7784	0	33472	
7785	0	32996	
7786	0	32652	
7787	0	32516	
7788	0	32548	
7789	0	32576	
7790	0	32544	
7791	0	32369	
7792	0	32040	
7793	0	31600	
7794	0	31048	
7795	0	30506	
7796	0	30232	
7797	0	30344	
7798	0	30708	
7799	0	31156	
7800	0	31652	
7801	0	32092	
7802	0	32316	
7803	0	32328	
7804	0	32152	
7805	0	31840	
7806	0	31652	
7807	0	31700	
7808	0	31920	
7809	0	32128	
7810	0	32184	
7811	0	32036	
7812	0	31752	
7813	0	31314	
7814	0	30776	
7815	0	30272	
7816	0	30036	
7817	0	30176	
7818	0	30632	
7819	0	31152	
7820	0	31584	
7821	0	31944	
7822	0	32156	
7823	0	32194	
7824	0	32068	
7825	0	31820	
7826	0	31704	
7827	0	31808	
7828	0	32046	
7829	0	32216	
7830	0	32308	
7831	0	32232	
7832	0	31952	
7833	0	31480	
7834	0	30930	
7835	0	30356	
7836	0	30092	
7837	0	30296	
7838	0	30776	
7839	0	31304	
7840	0	31732	
7841	0	32080	
7842	0	32292	
7843	0	32392	
7844	0	32360	
7845	0	32164	
7846	0	32040	
7847	0	32152	
7848	0	32376	
7849	0	32496	
7850	0	32484	
7851	0	32392	
7852	0	32184	
7853	0	31828	
7854	0	31336	
7855	0	30764	
7856	0	30428	
7857	0	30572	
7858	0	31024	
7859	0	31560	
7860	0	32068	
7861	0	32452	
7862	0	32672	
7863	0	32768	
7864	0	32684	
7865	0	32418	
7866	0	32272	
7867	0	32364	
7868	0	32608	
7869	0	32780	
7870	0	32816	
7871	0	32712	
7872	0	32392	
7873	0	32000	
7874	0	31520	
7875	0	30992	
7876	0	30700	
7877	0	30848	
7878	0	31304	
7879	0	31844	
7880	0	32268	
7881	0	32658	
7882	0	32948	
7883	0	32976	
7884	0	32856	
7885	0	32596	
7886	0	32372	
7887	0	32436	
7888	0	32692	
7889	0	32904	
7890	0	33012	
7891	0	32924	
7892	0	32616	
7893	0	32156	
7894	0	31648	
7895	0	31168	
7896	0	30972	
7897	0	31176	
7898	0	31664	
7899	0	32168	
7900	0	32570	
7901	0	32898	
7902	0	33176	
7903	0	33305	
7904	0	33124	
7905	0	32812	
7906	0	32728	
7907	0	32872	
7908	0	33056	
7909	0	33220	
7910	0	33344	
7911	0	33256	
7912	0	33000	
7913	0	32590	
7914	0	32056	
7915	0	31500	
7916	0	31212	
7917	0	31340	
7918	0	31772	
7919	0	32332	
7920	0	32896	
7921	0	33380	
7922	0	33632	
7923	0	33672	
7924	0	33540	
7925	0	33236	
7926	0	33080	
7927	0	33140	
7928	0	33320	
7929	0	33540	
7930	0	33664	
7931	0	33628	
7932	0	33352	
7933	0	32928	
7934	0	32372	
7935	0	31840	
7936	0	31580	
7937	0	31720	
7938	0	32168	
7939	0	32696	
7940	0	33200	
7941	0	33616	
7942	0	33876	
7943	0	33980	
7944	0	33896	
7945	0	33624	
7946	0	33474	
7947	0	33584	
7948	0	33864	
7949	0	34060	
7950	0	34120	
7951	0	34020	
7952	0	33760	
7953	0	33352	
7954	0	32848	
7955	0	32320	
7956	0	32084	
7957	0	32268	
7958	0	32708	
7959	0	33274	
7960	0	33836	
7961	0	34280	
7962	0	34512	
7963	0	34544	
7964	0	34424	
7965	0	34192	
7966	0	34132	
7967	0	34320	
7968	0	34596	
7969	0	34732	
7970	0	34784	
7971	0	34672	
7972	0	34344	
7973	0	33888	
7974	0	33408	
7975	0	32948	
7976	0	32748	
7977	0	32906	
7978	0	33344	
7979	0	33892	
7980	0	34448	
7981	0	34940	
7982	0	35200	
7983	0	35280	
7984	0	35200	
7985	0	34964	
7986	0	34780	
7987	0	34808	
7988	0	35052	
7989	0	35336	
7990	0	35480	
7991	0	35384	
7992	0	35088	
7993	0	34668	
7994	0	34160	
7995	0	33648	
7996	0	33356	
7997	0	33492	
7998	0	33968	
7999	0	34448	
8000	0	34888	
8001	0	35240	
8002	0	35452	
8003	0	35508	
8004	0	35440	
8005	0	35296	
8006	0	35136	
8007	0	35156	
8008	0	35404	
8009	0	35640	
8010	0	35752	
8011	0	35680	
8012	0	35376	
8013	0	34880	
8014	0	34286	
8015	0	33668	
8016	0	33368	
8017	0	33512	
8018	0	33976	
8019	0	34512	
8020	0	35016	
8021	0	35364	
8022	0	35504	
8023	0	35472	
8024	0	35312	
8025	0	35032	
8026	0	34844	
8027	0	34874	
8028	0	35116	
8029	0	35264	
8030	0	35252	
8031	0	35084	
8032	0	34724	
8033	0	34260	
8034	0	33636	
8035	0	33056	
8036	0	32732	
8037	0	32748	
8038	0	33056	
8039	0	33452	
8040	0	33804	
8041	0	34116	
8042	0	34242	
8043	0	34176	
8044	0	33940	
8045	0	33592	
8046	0	33392	
8047	0	33364	
8048	0	33468	
8049	0	33560	
8050	0	33472	
8051	0	33192	
8052	0	32808	
8053	0	32332	
8054	0	31776	
8055	0	31188	
8056	0	30816	
8057	0	30864	
8058	0	31240	
8059	0	31796	
8060	0	32260	
8061	0	32528	
8062	0	32688	
8063	0	32632	
8064	0	32476	
8065	0	32080	
8066	0	31817	
8067	0	31856	
8068	0	32040	
8069	0	32164	
8070	0	32136	
8071	0	31972	
8072	0	31636	
8073	0	31200	
8074	0	30696	
8075	0	30164	
8076	0	29876	
8077	0	29944	
8078	0	30304	
8079	0	30776	
8080	0	31248	
8081	0	31664	
8082	0	31892	
8083	0	31860	
8084	0	31652	
8085	0	31288	
8086	0	31088	
8087	0	31192	
8088	0	31448	
8089	0	31640	
8090	0	31728	
8091	0	31636	
8092	0	31344	
8093	0	30960	
8094	0	30400	
8095	0	29788	
8096	0	29544	
8097	0	29680	
8098	0	30060	
8099	0	30536	
8100	0	31012	
8101	0	31424	
8102	0	31720	
8103	0	31832	
8104	0	31672	
8105	0	31388	
8106	0	31232	
8107	0	31356	
8108	0	31608	
8109	0	31736	
8110	0	31772	
8111	0	31692	
8112	0	31400	
8113	0	30988	
8114	0	30457	
8115	0	29976	
8116	0	29772	
8117	0	29888	
8118	0	30256	
8119	0	30776	
8120	0	31272	
8121	0	31736	
8122	0	31964	
8123	0	31908	
8124	0	31696	
8125	0	31460	
8126	0	31340	
8127	0	31388	
8128	0	31568	
8129	0	31716	
8130	0	31808	
8131	0	31754	
8132	0	31512	
8133	0	31116	
8134	0	30628	
8135	0	30116	
8136	0	29840	
8137	0	30026	
8138	0	30436	
8139	0	30940	
8140	0	31480	
8141	0	31908	
8142	0	32134	
8143	0	32120	
8144	0	31974	
8145	0	31700	
8146	0	31560	
8147	0	31740	
8148	0	32056	
8149	0	32216	
8150	0	32216	
8151	0	32128	
8152	0	31860	
8153	0	31376	
8154	0	30888	
8155	0	30416	
8156	0	30168	
8157	0	30260	
8158	0	30640	
8159	0	31196	
8160	0	31704	
8161	0	32112	
8162	0	32384	
8163	0	32460	
8164	0	32328	
8165	0	32040	
8166	0	31856	
8167	0	31936	
8168	0	32152	
8169	0	32340	
8170	0	32400	
8171	0	32296	
8172	0	32036	
8173	0	31628	
8174	0	31116	
8175	0	30596	
8176	0	30344	
8177	0	30528	
8178	0	30952	
8179	0	31448	
8180	0	31868	
8181	0	32216	
8182	0	32436	
8183	0	32512	
8184	0	32440	
8185	0	32248	
8186	0	32208	
8187	0	32340	
8188	0	32524	
8189	0	32656	
8190	0	32688	
8191	0	32616	
8192	0	32372	
8193	0	31916	
8194	0	31344	
8195	0	30872	
8196	0	30632	
8197	0	30748	
8198	0	31140	
8199	0	31640	
8200	0	32138	
8201	0	32488	
8202	0	32648	
8203	0	32694	
8204	0	32640	
8205	0	32476	
8206	0	32420	
8207	0	32540	
8208	0	32664	
8209	0	32824	
8210	0	32940	
8211	0	32864	
8212	0	32520	
8213	0	32064	
8214	0	31616	
8215	0	31136	
8216	0	30780	
8217	0	30752	
8218	0	31064	
8219	0	31576	
8220	0	32108	
8221	0	32616	
8222	0	32888	
8223	0	32924	
8224	0	32832	
8225	0	32532	
8226	0	32324	
8227	0	32456	
8228	0	32744	
8229	0	32914	
8230	0	32992	
8231	0	32920	
8232	0	32628	
8233	0	32204	
8234	0	31744	
8235	0	31088	
8236	0	30800	
8237	0	30849	
8238	0	31228	
8239	0	31792	
8240	0	32288	
8241	0	32656	
8242	0	32800	
8243	0	32868	
8244	0	32780	
8245	0	32570	
8246	0	32484	
8247	0	32668	
8248	0	32952	
8249	0	33152	
8250	0	33176	
8251	0	32968	
8252	0	32600	
8253	0	32160	
8254	0	31684	
8255	0	31148	
8256	0	30888	
8257	0	31034	
8258	0	31424	
8259	0	31900	
8260	0	32340	
8261	0	32668	
8262	0	32820	
8263	0	32906	
8264	0	32876	
8265	0	32664	
8266	0	32538	
8267	0	32636	
8268	0	32888	
8269	0	33064	
8270	0	33164	
8271	0	33116	
8272	0	32828	
8273	0	32360	
8274	0	31796	
8275	0	31296	
8276	0	31096	
8277	0	31236	
8278	0	31632	
8279	0	32192	
8280	0	32616	
8281	0	32916	
8282	0	33120	
8283	0	33216	
8284	0	33092	
8285	0	32724	
8286	0	32484	
8287	0	32548	
8288	0	32836	
8289	0	33096	
8290	0	33176	
8291	0	33068	
8292	0	32800	
8293	0	32384	
8294	0	31832	
8295	0	31216	
8296	0	30916	
8297	0	31016	
8298	0	31404	
8299	0	31936	
8300	0	32440	
8301	0	32872	
8302	0	33184	
8303	0	33288	
8304	0	33140	
8305	0	32832	
8306	0	32684	
8307	0	32792	
8308	0	33064	
8309	0	33204	
8310	0	33180	
8311	0	33012	
8312	0	32640	
8313	0	32108	
8314	0	31576	
8315	0	31092	
8316	0	30868	
8317	0	31072	
8318	0	31528	
8319	0	32012	
8320	0	32508	
8321	0	32908	
8322	0	33088	
8323	0	33172	
8324	0	33048	
8325	0	32740	
8326	0	32560	
8327	0	32728	
8328	0	33024	
8329	0	33274	
8330	0	33386	
8331	0	33304	
8332	0	32952	
8333	0	32484	
8334	0	31924	
8335	0	31356	
8336	0	31028	
8337	0	31132	
8338	0	31600	
8339	0	32148	
8340	0	32652	
8341	0	33088	
8342	0	33264	
8343	0	33208	
8344	0	33068	
8345	0	32908	
8346	0	32844	
8347	0	33004	
8348	0	33224	
8349	0	33360	
8350	0	33416	
8351	0	33276	
8352	0	32928	
8353	0	32452	
8354	0	31912	
8355	0	31352	
8356	0	31048	
8357	0	31248	
8358	0	31704	
8359	0	32252	
8360	0	32732	
8361	0	33144	
8362	0	33332	
8363	0	33328	
8364	0	33184	
8365	0	32856	
8366	0	32600	
8367	0	32724	
8368	0	32984	
8369	0	33180	
8370	0	33272	
8371	0	33224	
8372	0	33004	
8373	0	32588	
8374	0	32084	
8375	0	31580	
8376	0	31348	
8377	0	31456	
8378	0	31836	
8379	0	32348	
8380	0	32780	
8381	0	33200	
8382	0	33472	
8383	0	33488	
8384	0	33284	
8385	0	33036	
8386	0	32852	
8387	0	32928	
8388	0	33180	
8389	0	33344	
8390	0	33428	
8391	0	33284	
8392	0	33024	
8393	0	32556	
8394	0	32008	
8395	0	31474	
8396	0	31228	
8397	0	31396	
8398	0	31844	
8399	0	32340	
8400	0	32808	
8401	0	33184	
8402	0	33432	
8403	0	33512	
8404	0	33400	
8405	0	33152	
8406	0	33052	
8407	0	33108	
8408	0	33320	
8409	0	33484	
8410	0	33536	
8411	0	33333	
8412	0	32952	
8413	0	32456	
8414	0	31972	
8415	0	31520	
8416	0	31272	
8417	0	31396	
8418	0	31786	
8419	0	32296	
8420	0	32804	
8421	0	33232	
8422	0	33464	
8423	0	33506	
8424	0	33416	
8425	0	33144	
8426	0	32960	
8427	0	33028	
8428	0	33172	
8429	0	33296	
8430	0	33440	
8431	0	33392	
8432	0	33096	
8433	0	32616	
8434	0	32104	
8435	0	31616	
8436	0	31346	
8437	0	31504	
8438	0	31906	
8439	0	32424	
8440	0	32888	
8441	0	33224	
8442	0	33360	
8443	0	33434	
8444	0	33356	
8445	0	33162	
8446	0	33056	
8447	0	33128	
8448	0	33316	
8449	0	33440	
8450	0	33454	
8451	0	33324	
8452	0	33052	
8453	0	32672	
8454	0	32160	
8455	0	31600	
8456	0	31212	
8457	0	31276	
8458	0	31708	
8459	0	32232	
8460	0	32712	
8461	0	33208	
8462	0	33536	
8463	0	33552	
8464	0	33336	
8465	0	33028	
8466	0	32872	
8467	0	33012	
8468	0	33328	
8469	0	33548	
8470	0	33596	
8471	0	33484	
8472	0	33232	
8473	0	32838	
8474	0	32284	
8475	0	31692	
8476	0	31336	
8477	0	31472	
8478	0	31930	
8479	0	32484	
8480	0	32969	
8481	0	33338	
8482	0	33528	
8483	0	33616	
8484	0	33524	
8485	0	33172	
8486	0	32928	
8487	0	32972	
8488	0	33230	
8489	0	33480	
8490	0	33600	
8491	0	33464	
8492	0	33036	
8493	0	32580	
8494	0	32192	
8495	0	31680	
8496	0	31424	
8497	0	31562	
8498	0	31968	
8499	0	32488	
8500	0	32948	
8501	0	33236	
8502	0	33428	
8503	0	33528	
8504	0	33476	
8505	0	33280	
8506	0	33116	
8507	0	33204	
8508	0	33480	
8509	0	33736	
8510	0	33788	
8511	0	33632	
8512	0	33260	
8513	0	32800	
8514	0	32216	
8515	0	31680	
8516	0	31416	
8517	0	31520	
8518	0	31892	
8519	0	32408	
8520	0	32872	
8521	0	33276	
8522	0	33524	
8523	0	33576	
8524	0	33400	
8525	0	33124	
8526	0	33004	
8527	0	33056	
8528	0	33284	
8529	0	33536	
8530	0	33680	
8531	0	33644	
8532	0	33352	
8533	0	32888	
8534	0	32420	
8535	0	31940	
8536	0	31684	
8537	0	31866	
8538	0	32360	
8539	0	32936	
8540	0	33412	
8541	0	33768	
8542	0	34056	
8543	0	34132	
8544	0	33952	
8545	0	33772	
8546	0	33784	
8547	0	33928	
8548	0	34236	
8549	0	34484	
8550	0	34536	
8551	0	34364	
8552	0	34008	
8553	0	33576	
8554	0	33092	
8555	0	32500	
8556	0	32080	
8557	0	32168	
8558	0	32544	
8559	0	32984	
8560	0	33384	
8561	0	33720	
8562	0	33936	
8563	0	33976	
8564	0	33928	
8565	0	33744	
8566	0	33696	
8567	0	33798	
8568	0	34056	
8569	0	34236	
8570	0	34328	
8571	0	34290	
8572	0	34100	
8573	0	33692	
8574	0	33176	
8575	0	32688	
8576	0	32468	
8577	0	32568	
8578	0	32970	
8579	0	33424	
8580	0	33908	
8581	0	34304	
8582	0	34560	
8583	0	34634	
8584	0	34552	
8585	0	34365	
8586	0	34168	
8587	0	34208	
8588	0	34400	
8589	0	34456	
8590	0	34422	
8591	0	34328	
8592	0	34096	
8593	0	33736	
